Timestamp_Epoch_ms,ECG_mV,HR_BPM
1780607918916,0.538,83
1780607918923,1.514,83
1780607918931,2.059,83
1780607918939,2.078,83
1780607918947,2.205,83
1780607918954,2.37,83
1780607918962,2.377,83
1780607918970,2.386,83
1780607918977,2.409,83
1780607918985,2.361,83
1780607918993,2.298,83
1780607919000,2.263,83
1780607919008,2.226,83
1780607919016,2.177,83
1780607919023,2.087,83
1780607919031,1.976,83
1780607919039,1.887,83
1780607919047,1.802,83
1780607919054,1.716,83
1780607919062,1.642,83
1780607919070,1.537,83
1780607919077,1.414,83
1780607919085,1.326,83
1780607919093,1.252,83
1780607919100,1.161,83
1780607919108,1.085,83
1780607919116,1.011,83
1780607919123,0.911,83
1780607919131,0.821,83
1780607919139,0.749,83
1780607919147,0.67,83
1780607919154,0.586,83
1780607919162,0.507,83
1780607919170,0.424,83
1780607919177,0.343,83
1780607919185,0.276,83
1780607919193,0.201,83
1780607919200,0.122,83
1780607919208,0.046,83
1780607919216,-0.039,83
1780607919223,-0.122,83
1780607919231,-0.192,83
1780607919239,-0.25,83
1780607919247,-0.313,83
1780607919254,-0.398,83
1780607919262,-0.48,83
1780607919270,-0.517,83
1780607919277,-0.549,83
1780607919285,-0.623,83
1780607919293,-0.7,83
1780607919300,-0.77,83
1780607919308,-0.841,83
1780607919316,-0.902,83
1780607919323,-0.957,83
1780607919331,-1.027,83
1780607919339,-1.09,83
1780607919347,-1.157,83
1780607919354,-1.25,83
1780607919362,-1.312,83
1780607919370,-1.319,83
1780607919377,-1.352,83
1780607919385,-1.4,83
1780607919393,-1.366,83
1780607919400,-1.213,83
1780607919408,-1.029,83
1780607919416,-1.071,83
1780607919423,-1.498,83
1780607919431,-1.927,83
1780607919439,-1.945,83
1780607919447,-1.846,83
1780607919454,-1.906,83
1780607919462,-1.918,83
1780607919470,-1.871,83
1780607919598,-1.915,84
1780607919606,-1.966,84
1780607919614,-1.978,84
1780607919621,-2.01,84
1780607919629,-2.041,84
1780607919637,-2.052,84
1780607919644,-2.078,84
1780607919652,-2.117,84
1780607919660,-2.15,84
1780607919668,-2.18,84
1780607919675,-2.21,84
1780607919683,-2.217,84
1780607919691,-2.221,84
1780607919698,-2.247,84
1780607919706,-2.265,84
1780607919714,-2.298,84
1780607919721,-2.354,84
1780607919729,-2.347,84
1780607919737,-2.303,84
1780607919744,-2.33,84
1780607919752,-2.375,84
1780607919760,-2.381,84
1780607919768,-2.442,84
1780607919775,-2.5,84
1780607919783,-2.467,84
1780607919791,-2.474,84
1780607919798,-2.546,84
1780607919806,-2.558,84
1780607919814,-2.56,84
1780607919821,-2.602,84
1780607919829,-2.588,84
1780607919837,-2.56,84
1780607919844,-2.597,84
1780607919852,-2.639,84
1780607919860,-2.648,84
1780607919868,-2.646,84
1780607919875,-2.604,84
1780607919883,-2.546,84
1780607919891,-2.537,84
1780607919898,-2.53,84
1780607919906,-2.507,84
1780607919914,-2.521,84
1780607919921,-2.539,84
1780607919929,-2.514,84
1780607919937,-2.495,84
1780607919944,-2.49,84
1780607919952,-2.486,84
1780607919960,-2.528,84
1780607919968,-2.579,84
1780607919975,-2.541,84
1780607919983,-2.481,84
1780607919991,-2.472,84
1780607919998,-2.451,84
1780607920006,-2.442,84
1780607920014,-2.488,84
1780607920021,-2.477,84
1780607920029,-2.405,84
1780607920037,-2.386,84
1780607920044,-2.391,84
1780607920052,-2.368,84
1780607920060,-2.365,84
1780607920068,-2.37,84
1780607920075,-2.347,84
1780607920083,-2.323,84
1780607920091,-2.321,84
1780607920098,-2.314,84
1780607920106,-2.303,84
1780607920114,-2.208,84
1780607920121,-1.89,84
1780607920129,-1.565,84
1780607920137,-1.658,84
1780607920144,-2.163,84
1780607920152,-2.518,84
1780607920280,-2.435,84
1780607920287,-2.291,84
1780607920295,-2.27,84
1780607920303,-2.221,84
1780607920311,-2.184,84
1780607920318,-2.201,84
1780607920326,-2.242,84
1780607920334,-2.238,84
1780607920341,-2.156,84
1780607920349,-2.105,84
1780607920357,-2.112,84
1780607920364,-2.094,84
1780607920372,-2.103,84
1780607920380,-2.126,84
1780607920387,-2.066,84
1780607920395,-1.999,84
1780607920403,-1.989,84
1780607920411,-1.973,84
1780607920418,-1.962,84
1780607920426,-1.976,84
1780607920434,-1.943,84
1780607920441,-1.878,84
1780607920449,-1.864,84
1780607920457,-1.867,84
1780607920464,-1.874,84
1780607920472,-1.904,84
1780607920480,-1.899,84
1780607920487,-1.843,84
1780607920495,-1.771,84
1780607920503,-1.704,84
1780607920511,-1.688,84
1780607920518,-1.72,84
1780607920526,-1.795,84
1780607920534,-1.878,84
1780607920541,-1.883,84
1780607920549,-1.855,84
1780607920557,-1.869,84
1780607920564,-1.897,84
1780607920572,-1.913,84
1780607920580,-1.901,84
1780607920587,-1.862,84
1780607920595,-1.829,84
1780607920603,-1.816,84
1780607920611,-1.813,84
1780607920618,-1.825,84
1780607920626,-1.82,84
1780607920634,-1.76,84
1780607920641,-1.72,84
1780607920649,-1.727,84
1780607920657,-1.716,84
1780607920664,-1.713,84
1780607920672,-1.732,84
1780607920680,-1.7,84
1780607920687,-1.644,84
1780607920695,-1.635,84
1780607920703,-1.632,84
1780607920711,-1.616,84
1780607920718,-1.618,84
1780607920726,-1.604,84
1780607920734,-1.563,84
1780607920741,-1.558,84
1780607920749,-1.57,84
1780607920757,-1.567,84
1780607920764,-1.598,84
1780607920772,-1.623,84
1780607920780,-1.577,84
1780607920787,-1.519,84
1780607920795,-1.507,84
1780607920803,-1.493,84
1780607920811,-1.489,84
1780607920818,-1.5,84
1780607920826,-1.449,84
1780607920834,-1.342,84
1780607920818,-1.161,84
1780607920825,-0.876,84
1780607920833,-0.728,84
1780607920841,-1.022,84
1780607920849,-1.505,84
1780607920856,-1.609,84
1780607920864,-1.412,84
1780607920872,-1.322,84
1780607920879,-1.319,84
1780607920887,-1.31,84
1780607920895,-1.31,84
1780607920902,-1.28,84
1780607920910,-1.236,84
1780607920918,-1.217,84
1780607920925,-1.201,84
1780607920933,-1.206,84
1780607920941,-1.224,84
1780607920949,-1.21,84
1780607920956,-1.18,84
1780607920964,-1.148,84
1780607920972,-1.12,84
1780607920979,-1.108,84
1780607920987,-1.099,84
1780607920995,-1.087,84
1780607921002,-1.073,84
1780607921010,-1.046,84
1780607921018,-1.015,84
1780607921025,-1.006,84
1780607921033,-1.025,84
1780607921041,-1.036,84
1780607921049,-1.008,84
1780607921056,-0.985,84
1780607921064,-0.988,84
1780607921072,-0.994,84
1780607921079,-1.022,84
1780607921087,-1.066,84
1780607921095,-1.062,84
1780607921102,-1.036,84
1780607921110,-1.043,84
1780607921118,-1.046,84
1780607921125,-1.046,84
1780607921133,-1.069,84
1780607921141,-1.062,84
1780607921149,-1.018,84
1780607921156,-1.004,84
1780607921164,-1.004,84
1780607921172,-0.99,84
1780607921179,-1.008,84
1780607921187,-1.022,84
1780607921195,-0.976,84
1780607921202,-0.941,84
1780607921210,-0.941,84
1780607921218,-0.932,84
1780607921225,-0.939,84
1780607921233,-0.96,84
1780607921241,-0.943,84
1780607921249,-0.916,84
1780607921256,-0.906,84
1780607921264,-0.895,84
1780607921272,-0.892,84
1780607921279,-0.913,84
1780607921287,-0.904,84
1780607921295,-0.869,84
1780607921302,-0.855,84
1780607921310,-0.853,84
1780607921318,-0.851,84
1780607921325,-0.853,84
1780607921333,-0.846,84
1780607921341,-0.825,84
1780607921349,-0.828,84
1780607921356,-0.832,84
1780607921364,-0.823,84
1780607921372,-0.823,84
1780607921352,-0.834,84
1780607921359,-0.823,84
1780607921367,-0.807,84
1780607921375,-0.8,84
1780607921382,-0.797,84
1780607921390,-0.802,84
1780607921398,-0.818,84
1780607921406,-0.807,84
1780607921413,-0.756,84
1780607921421,-0.667,84
1780607921429,-0.489,84
1780607921436,-0.257,84
1780607921444,-0.241,84
1780607921452,-0.598,84
1780607921459,-0.96,84
1780607921467,-0.948,84
1780607921475,-0.79,84
1780607921482,-0.76,84
1780607921490,-0.779,84
1780607921498,-0.779,84
1780607921506,-0.767,84
1780607921513,-0.749,84
1780607921521,-0.732,84
1780607921529,-0.721,84
1780607921536,-0.714,84
1780607921544,-0.716,84
1780607921552,-0.705,84
1780607921559,-0.677,84
1780607921567,-0.661,84
1780607921575,-0.654,84
1780607921582,-0.642,84
1780607921590,-0.644,84
1780607921598,-0.644,84
1780607921606,-0.614,84
1780607921613,-0.586,84
1780607921621,-0.582,84
1780607921629,-0.568,84
1780607921636,-0.563,84
1780607921644,-0.57,84
1780607921652,-0.561,84
1780607921659,-0.542,84
1780607921667,-0.545,84
1780607921675,-0.554,84
1780607921682,-0.558,84
1780607921690,-0.575,84
1780607921698,-0.591,84
1780607921706,-0.603,84
1780607921713,-0.614,84
1780607921721,-0.616,84
1780607921729,-0.612,84
1780607921736,-0.628,84
1780607921744,-0.64,84
1780607921752,-0.619,84
1780607921759,-0.598,84
1780607921767,-0.596,84
1780607921775,-0.586,84
1780607921782,-0.584,84
1780607921790,-0.6,84
1780607921798,-0.591,84
1780607921806,-0.568,84
1780607921813,-0.563,84
1780607921821,-0.556,84
1780607921829,-0.547,84
1780607921836,-0.554,84
1780607921844,-0.561,84
1780607921852,-0.542,84
1780607921859,-0.528,84
1780607921867,-0.521,84
1780607921875,-0.514,84
1780607921882,-0.524,84
1780607921890,-0.535,84
1780607921898,-0.521,84
1780607921906,-0.503,84
1780607921937,-0.498,86
1780607921945,-0.498,86
1780607921952,-0.514,86
1780607921960,-0.533,86
1780607921968,-0.521,86
1780607921975,-0.503,86
1780607921983,-0.5,86
1780607921991,-0.489,86
1780607921998,-0.482,86
1780607922006,-0.498,86
1780607922014,-0.503,86
1780607922021,-0.473,86
1780607922029,-0.454,86
1780607922037,-0.452,86
1780607922045,-0.442,86
1780607922052,-0.449,86
1780607922060,-0.461,86
1780607922068,-0.438,86
1780607922075,-0.415,86
1780607922083,-0.408,86
1780607922091,-0.38,86
1780607922098,-0.359,86
1780607922106,-0.385,86
1780607922114,-0.398,86
1780607922121,-0.373,86
1780607922129,-0.364,86
1780607922137,-0.371,86
1780607922145,-0.38,86
1780607922152,-0.398,86
1780607922160,-0.401,86
1780607922168,-0.378,86
1780607922175,-0.373,86
1780607922183,-0.382,86
1780607922191,-0.385,86
1780607922198,-0.394,86
1780607922206,-0.387,86
1780607922214,-0.306,86
1780607922221,-0.115,86
1780607922229,0.132,86
1780607922237,0.222,86
1780607922245,-0.083,86
1780607922252,-0.547,86
1780607922260,-0.635,86
1780607922268,-0.449,86
1780607922275,-0.387,86
1780607922283,-0.396,86
1780607922291,-0.371,86
1780607922298,-0.378,86
1780607922306,-0.389,86
1780607922314,-0.361,86
1780607922321,-0.34,86
1780607922329,-0.345,86
1780607922337,-0.345,86
1780607922345,-0.343,86
1780607922352,-0.347,86
1780607922360,-0.338,86
1780607922368,-0.32,86
1780607922375,-0.315,86
1780607922383,-0.31,86
1780607922391,-0.31,86
1780607922398,-0.322,86
1780607922406,-0.313,86
1780607922414,-0.289,86
1780607922421,-0.287,86
1780607922429,-0.292,86
1780607922437,-0.28,86
1780607922445,-0.28,86
1780607922452,-0.296,86
1780607922460,-0.308,86
1780607922468,-0.315,86
1780607922475,-0.333,86
1780607922483,-0.354,86
1780607922491,-0.378,86
1780607922474,-0.41,88
1780607922482,-0.422,88
1780607922490,-0.426,88
1780607922497,-0.44,88
1780607922505,-0.445,88
1780607922513,-0.449,88
1780607922520,-0.473,88
1780607922528,-0.473,88
1780607922536,-0.454,88
1780607922543,-0.452,88
1780607922551,-0.454,88
1780607922559,-0.456,88
1780607922567,-0.473,88
1780607922574,-0.475,88
1780607922582,-0.459,88
1780607922590,-0.456,88
1780607922597,-0.454,88
1780607922605,-0.447,88
1780607922613,-0.459,88
1780607922620,-0.482,88
1780607922628,-0.475,88
1780607922636,-0.463,88
1780607922643,-0.466,88
1780607922651,-0.459,88
1780607922659,-0.463,88
1780607922667,-0.482,88
1780607922674,-0.487,88
1780607922682,-0.47,88
1780607922690,-0.473,88
1780607922697,-0.484,88
1780607922705,-0.482,88
1780607922713,-0.484,88
1780607922720,-0.494,88
1780607922728,-0.491,88
1780607922736,-0.477,88
1780607922743,-0.466,88
1780607922751,-0.461,88
1780607922759,-0.459,88
1780607922767,-0.454,88
1780607922774,-0.449,88
1780607922782,-0.445,88
1780607922790,-0.442,88
1780607922797,-0.44,88
1780607922805,-0.447,88
1780607922813,-0.466,88
1780607922820,-0.466,88
1780607922828,-0.442,88
1780607922836,-0.433,88
1780607922843,-0.431,88
1780607922851,-0.433,88
1780607922859,-0.449,88
1780607922867,-0.454,88
1780607922874,-0.429,88
1780607922882,-0.408,88
1780607922890,-0.41,88
1780607922897,-0.415,88
1780607922905,-0.424,88
1780607922913,-0.431,88
1780607922920,-0.405,88
1780607922928,-0.373,88
1780607922936,-0.382,88
1780607922943,-0.405,88
1780607922951,-0.41,88
1780607922959,-0.41,88
1780607922967,-0.408,88
1780607922974,-0.401,88
1780607922982,-0.403,88
1780607922990,-0.401,88
1780607922997,-0.389,88
1780607923005,-0.387,88
1780607923013,-0.387,88
1780607923020,-0.378,88
1780607923028,-0.373,88
1780607923252,-0.371,88
1780607923260,-0.331,88
1780607923268,-0.204,88
1780607923275,0.057,88
1780607923283,0.32,88
1780607923291,0.234,88
1780607923299,-0.257,88
1780607923306,-0.616,88
1780607923314,-0.533,88
1780607923322,-0.403,88
1780607923329,-0.415,88
1780607923337,-0.387,88
1780607923345,-0.35,88
1780607923352,-0.361,88
1780607923360,-0.361,88
1780607923368,-0.357,88
1780607923375,-0.354,88
1780607923383,-0.336,88
1780607923391,-0.317,88
1780607923399,-0.315,88
1780607923406,-0.315,88
1780607923414,-0.315,88
1780607923422,-0.31,88
1780607923429,-0.285,88
1780607923437,-0.264,88
1780607923445,-0.262,88
1780607923452,-0.264,88
1780607923460,-0.264,88
1780607923468,-0.259,88
1780607923475,-0.245,88
1780607923483,-0.231,88
1780607923491,-0.227,88
1780607923499,-0.222,88
1780607923506,-0.224,88
1780607923514,-0.245,88
1780607923522,-0.262,88
1780607923529,-0.262,88
1780607923537,-0.276,88
1780607923545,-0.299,88
1780607923552,-0.306,88
1780607923560,-0.322,88
1780607923568,-0.343,88
1780607923575,-0.34,88
1780607923583,-0.331,88
1780607923591,-0.338,88
1780607923599,-0.336,88
1780607923606,-0.331,88
1780607923614,-0.343,88
1780607923622,-0.345,88
1780607923629,-0.329,88
1780607923637,-0.327,88
1780607923645,-0.336,88
1780607923652,-0.347,88
1780607923660,-0.357,88
1780607923668,-0.345,88
1780607923675,-0.322,88
1780607923683,-0.315,88
1780607923691,-0.303,88
1780607923699,-0.289,88
1780607923706,-0.294,88
1780607923714,-0.306,88
1780607923722,-0.294,88
1780607923729,-0.282,88
1780607923737,-0.278,88
1780607923745,-0.266,88
1780607923752,-0.264,88
1780607923760,-0.278,88
1780607923768,-0.278,88
1780607923775,-0.264,88
1780607923783,-0.252,88
1780607923791,-0.248,88
1780607923799,-0.238,88
1780607923806,-0.245,88
1780607923886,-0.252,89
1780607923894,-0.243,89
1780607923902,-0.231,89
1780607923910,-0.224,89
1780607923917,-0.22,89
1780607923925,-0.224,89
1780607923933,-0.234,89
1780607923940,-0.224,89
1780607923948,-0.206,89
1780607923956,-0.199,89
1780607923963,-0.204,89
1780607923971,-0.213,89
1780607923979,-0.222,89
1780607923986,-0.22,89
1780607923994,-0.211,89
1780607924002,-0.199,89
1780607924010,-0.19,89
1780607924017,-0.187,89
1780607924025,-0.194,89
1780607924033,-0.197,89
1780607924040,-0.187,89
1780607924048,-0.178,89
1780607924056,-0.18,89
1780607924063,-0.185,89
1780607924071,-0.194,89
1780607924079,-0.204,89
1780607924086,-0.197,89
1780607924094,-0.187,89
1780607924102,-0.178,89
1780607924110,-0.16,89
1780607924117,-0.15,89
1780607924125,-0.178,89
1780607924133,-0.194,89
1780607924140,-0.183,89
1780607924148,-0.176,89
1780607924156,-0.185,89
1780607924163,-0.201,89
1780607924171,-0.218,89
1780607924179,-0.22,89
1780607924186,-0.206,89
1780607924194,-0.199,89
1780607924202,-0.199,89
1780607924210,-0.204,89
1780607924217,-0.204,89
1780607924225,-0.185,89
1780607924233,-0.106,89
1780607924240,0.088,89
1780607924248,0.336,89
1780607924256,0.378,89
1780607924263,0.046,89
1780607924271,-0.35,89
1780607924279,-0.389,89
1780607924286,-0.243,89
1780607924294,-0.213,89
1780607924302,-0.218,89
1780607924310,-0.201,89
1780607924317,-0.22,89
1780607924325,-0.227,89
1780607924333,-0.204,89
1780607924340,-0.192,89
1780607924348,-0.187,89
1780607924356,-0.178,89
1780607924363,-0.173,89
1780607924371,-0.173,89
1780607924379,-0.164,89
1780607924386,-0.15,89
1780607924394,-0.141,89
1780607924402,-0.134,89
1780607924410,-0.132,89
1780607924417,-0.141,89
1780607924425,-0.139,89
1780607924433,-0.122,89
1780607924440,-0.113,89
1780607924520,-0.109,89
1780607924528,-0.106,89
1780607924535,-0.115,89
1780607924543,-0.122,89
1780607924551,-0.12,89
1780607924558,-0.12,89
1780607924566,-0.132,89
1780607924574,-0.143,89
1780607924582,-0.157,89
1780607924589,-0.176,89
1780607924597,-0.187,89
1780607924605,-0.194,89
1780607924612,-0.204,89
1780607924620,-0.211,89
1780607924628,-0.218,89
1780607924635,-0.231,89
1780607924643,-0.234,89
1780607924651,-0.222,89
1780607924658,-0.22,89
1780607924666,-0.218,89
1780607924674,-0.211,89
1780607924682,-0.208,89
1780607924689,-0.201,89
1780607924697,-0.194,89
1780607924705,-0.194,89
1780607924712,-0.194,89
1780607924720,-0.192,89
1780607924728,-0.197,89
1780607924735,-0.208,89
1780607924743,-0.204,89
1780607924751,-0.194,89
1780607924758,-0.194,89
1780607924766,-0.192,89
1780607924774,-0.19,89
1780607924782,-0.197,89
1780607924789,-0.201,89
1780607924797,-0.206,89
1780607924805,-0.218,89
1780607924812,-0.224,89
1780607924820,-0.224,89
1780607924828,-0.236,89
1780607924835,-0.248,89
1780607924843,-0.238,89
1780607924851,-0.229,89
1780607924858,-0.227,89
1780607924866,-0.227,89
1780607924874,-0.231,89
1780607924882,-0.241,89
1780607924889,-0.236,89
1780607924897,-0.224,89
1780607924905,-0.222,89
1780607924912,-0.22,89
1780607924920,-0.215,89
1780607924928,-0.211,89
1780607924935,-0.208,89
1780607924943,-0.204,89
1780607924951,-0.197,89
1780607924958,-0.194,89
1780607924966,-0.204,89
1780607924974,-0.22,89
1780607924982,-0.231,89
1780607924989,-0.227,89
1780607924997,-0.218,89
1780607925005,-0.215,89
1780607925012,-0.218,89
1780607925020,-0.22,89
1780607925028,-0.22,89
1780607925035,-0.213,89
1780607925043,-0.204,89
1780607925051,-0.194,89
1780607925058,-0.178,89
1780607925066,-0.176,89
1780607925074,-0.19,89
1780607925154,-0.171,91
1780607925162,-0.122,91
1780607925170,-0.076,91
1780607925177,-0.03,91
1780607925185,0.02,91
1780607925193,0.069,91
1780607925200,0.113,91
1780607925208,0.157,91
1780607925216,0.201,91
1780607925223,0.213,91
1780607925231,0.199,91
1780607925239,0.197,91
1780607925246,0.201,91
1780607925254,0.197,91
1780607925262,0.199,91
1780607925270,0.185,91
1780607925277,0.136,91
1780607925285,0.099,91
1780607925293,0.139,91
1780607925300,0.303,91
1780607925308,0.542,91
1780607925316,0.621,91
1780607925323,0.322,91
1780607925331,-0.113,91
1780607925339,-0.208,91
1780607925346,-0.067,91
1780607925354,-0.03,91
1780607925362,-0.039,91
1780607925370,-0.013,91
1780607925377,-0.037,91
1780607925385,-0.106,91
1780607925393,-0.141,91
1780607925400,-0.132,91
1780607925408,-0.111,91
1780607925416,-0.134,91
1780607925423,-0.185,91
1780607925431,-0.206,91
1780607925439,-0.201,91
1780607925446,-0.19,91
1780607925454,-0.173,91
1780607925462,-0.148,91
1780607925470,-0.122,91
1780607925477,-0.097,91
1780607925485,-0.069,91
1780607925493,-0.037,91
1780607925500,0.002,91
1780607925508,0.027,91
1780607925516,0.037,91
1780607925523,0.051,91
1780607925531,0.074,91
1780607925539,0.095,91
1780607925546,0.095,91
1780607925554,0.088,91
1780607925562,0.088,91
1780607925570,0.067,91
1780607925577,0.046,91
1780607925585,0.039,91
1780607925593,0.018,91
1780607925600,-0.02,91
1780607925608,-0.046,91
1780607925616,-0.039,91
1780607925623,-0.02,91
1780607925631,-0.02,91
1780607925639,-0.025,91
1780607925646,-0.016,91
1780607925654,-0.004,91
1780607925662,0.009,91
1780607925670,0.023,91
1780607925677,0.02,91
1780607925685,0.006,91
1780607925693,0.011,91
1780607925700,0.03,91
1780607925708,0.041,91
1780607925737,0.048,91
1780607925744,0.057,91
1780607925752,0.044,91
1780607925760,0.016,91
1780607925767,0.011,91
1780607925775,0.018,91
1780607925783,0.023,91
1780607925790,0.041,91
1780607925798,0.062,91
1780607925806,0.051,91
1780607925814,0.023,91
1780607925821,0.013,91
1780607925829,0.006,91
1780607925837,0.004,91
1780607925844,0.006,91
1780607925852,0.006,91
1780607925860,0.0,91
1780607925867,-0.006,91
1780607925875,-0.02,91
1780607925883,-0.027,91
1780607925890,-0.032,91
1780607925898,-0.069,91
1780607925906,-0.139,91
1780607925914,-0.183,91
1780607925921,-0.224,91
1780607925929,-0.313,91
1780607925937,-0.389,91
1780607925944,-0.424,91
1780607925952,-0.447,91
1780607925960,-0.44,91
1780607925967,-0.415,91
1780607925975,-0.403,91
1780607925983,-0.396,91
1780607925990,-0.385,91
1780607925998,-0.343,91
1780607926006,-0.273,91
1780607926014,-0.229,91
1780607926021,-0.222,91
1780607926029,-0.183,91
1780607926037,-0.097,91
1780607926044,-0.027,91
1780607926052,-0.009,91
1780607926060,-0.009,91
1780607926067,-0.002,91
1780607926075,-0.011,91
1780607926083,-0.051,91
1780607926090,-0.062,91
1780607926098,-0.067,91
1780607926106,-0.111,91
1780607926114,-0.136,91
1780607926121,-0.136,91
1780607926129,-0.146,91
1780607926137,-0.153,91
1780607926144,-0.141,91
1780607926152,-0.115,91
1780607926160,-0.092,91
1780607926167,-0.046,91
1780607926175,0.118,91
1780607926183,0.415,91
1780607926190,0.579,91
1780607926198,0.306,91
1780607926206,-0.211,91
1780607926214,-0.387,91
1780607926221,-0.227,91
1780607926229,-0.173,91
1780607926237,-0.213,91
1780607926244,-0.169,91
1780607926252,-0.125,91
1780607926260,-0.106,91
1780607926267,-0.037,91
1780607926275,0.044,91
1780607926283,0.064,91
1780607926290,0.064,91
1780607926419,0.095,84
1780607926427,0.115,84
1780607926434,0.12,84
1780607926442,0.122,84
1780607926450,0.125,84
1780607926457,0.132,84
1780607926465,0.148,84
1780607926473,0.157,84
1780607926480,0.162,84
1780607926488,0.169,84
1780607926496,0.173,84
1780607926504,0.169,84
1780607926511,0.16,84
1780607926519,0.155,84
1780607926527,0.15,84
1780607926534,0.132,84
1780607926542,0.102,84
1780607926550,0.069,84
1780607926557,0.032,84
1780607926565,0.002,84
1780607926573,-0.02,84
1780607926580,-0.048,84
1780607926588,-0.069,84
1780607926596,-0.085,84
1780607926604,-0.104,84
1780607926611,-0.118,84
1780607926619,-0.122,84
1780607926627,-0.127,84
1780607926634,-0.136,84
1780607926642,-0.146,84
1780607926650,-0.157,84
1780607926657,-0.169,84
1780607926665,-0.164,84
1780607926673,-0.148,84
1780607926680,-0.134,84
1780607926688,-0.125,84
1780607926696,-0.12,84
1780607926704,-0.12,84
1780607926711,-0.125,84
1780607926719,-0.129,84
1780607926727,-0.129,84
1780607926734,-0.127,84
1780607926742,-0.132,84
1780607926750,-0.146,84
1780607926757,-0.153,84
1780607926765,-0.148,84
1780607926773,-0.146,84
1780607926780,-0.146,84
1780607926788,-0.157,84
1780607926796,-0.18,84
1780607926804,-0.19,84
1780607926811,-0.185,84
1780607926819,-0.178,84
1780607926827,-0.171,84
1780607926834,-0.171,84
1780607926842,-0.194,84
1780607926850,-0.218,84
1780607926857,-0.211,84
1780607926865,-0.204,84
1780607926873,-0.206,84
1780607926880,-0.201,84
1780607926888,-0.204,84
1780607926896,-0.218,84
1780607926904,-0.222,84
1780607926911,-0.241,84
1780607926919,-0.303,84
1780607926927,-0.361,84
1780607926934,-0.38,84
1780607926942,-0.41,84
1780607926950,-0.459,84
1780607926957,-0.487,84
1780607926965,-0.484,84
1780607926973,-0.468,84
1780607926908,-0.447,84
1780607926916,-0.447,84
1780607926924,-0.447,84
1780607926931,-0.405,84
1780607926939,-0.366,84
1780607926947,-0.385,84
1780607926954,-0.415,84
1780607926962,-0.412,84
1780607926970,-0.41,84
1780607926978,-0.419,84
1780607926985,-0.424,84
1780607926993,-0.403,84
1780607927001,-0.38,84
1780607927008,-0.375,84
1780607927016,-0.382,84
1780607927024,-0.387,84
1780607927031,-0.382,84
1780607927039,-0.371,84
1780607927047,-0.322,84
1780607927054,-0.16,84
1780607927062,0.12,84
1780607927070,0.32,84
1780607927078,0.153,84
1780607927085,-0.329,84
1780607927093,-0.614,84
1780607927101,-0.505,84
1780607927108,-0.398,84
1780607927116,-0.426,84
1780607927124,-0.412,84
1780607927131,-0.385,84
1780607927139,-0.38,84
1780607927147,-0.354,84
1780607927154,-0.345,84
1780607927162,-0.38,84
1780607927170,-0.396,84
1780607927178,-0.375,84
1780607927185,-0.352,84
1780607927193,-0.34,84
1780607927201,-0.336,84
1780607927208,-0.345,84
1780607927216,-0.359,84
1780607927224,-0.35,84
1780607927231,-0.329,84
1780607927239,-0.322,84
1780607927247,-0.31,84
1780607927254,-0.299,84
1780607927262,-0.301,84
1780607927270,-0.292,84
1780607927278,-0.269,84
1780607927285,-0.262,84
1780607927293,-0.262,84
1780607927301,-0.264,84
1780607927308,-0.285,84
1780607927316,-0.31,84
1780607927324,-0.317,84
1780607927331,-0.329,84
1780607927339,-0.347,84
1780607927347,-0.357,84
1780607927354,-0.366,84
1780607927362,-0.382,84
1780607927370,-0.385,84
1780607927378,-0.385,84
1780607927385,-0.389,84
1780607927393,-0.385,84
1780607927401,-0.38,84
1780607927408,-0.389,84
1780607927416,-0.385,84
1780607927424,-0.366,84
1780607927431,-0.359,84
1780607927439,-0.354,84
1780607927447,-0.343,84
1780607927454,-0.35,84
1780607927462,-0.357,84
1780607927588,-0.352,79
1780607927596,-0.338,79
1780607927604,-0.324,79
1780607927611,-0.315,79
1780607927619,-0.32,79
1780607927627,-0.322,79
1780607927635,-0.31,79
1780607927642,-0.299,79
1780607927650,-0.294,79
1780607927658,-0.287,79
1780607927665,-0.287,79
1780607927673,-0.292,79
1780607927681,-0.285,79
1780607927688,-0.276,79
1780607927696,-0.271,79
1780607927704,-0.264,79
1780607927711,-0.255,79
1780607927719,-0.248,79
1780607927727,-0.245,79
1780607927735,-0.241,79
1780607927742,-0.231,79
1780607927750,-0.227,79
1780607927758,-0.227,79
1780607927765,-0.227,79
1780607927773,-0.231,79
1780607927781,-0.224,79
1780607927788,-0.211,79
1780607927796,-0.201,79
1780607927804,-0.194,79
1780607927811,-0.199,79
1780607927819,-0.215,79
1780607927827,-0.22,79
1780607927835,-0.204,79
1780607927842,-0.192,79
1780607927850,-0.19,79
1780607927858,-0.19,79
1780607927865,-0.199,79
1780607927873,-0.213,79
1780607927881,-0.204,79
1780607927888,-0.19,79
1780607927896,-0.176,79
1780607927904,-0.155,79
1780607927911,-0.153,79
1780607927919,-0.18,79
1780607927927,-0.187,79
1780607927935,-0.171,79
1780607927942,-0.173,79
1780607927950,-0.194,79
1780607927958,-0.206,79
1780607927965,-0.204,79
1780607927973,-0.197,79
1780607927981,-0.192,79
1780607927988,-0.194,79
1780607927996,-0.199,79
1780607928004,-0.201,79
1780607928011,-0.194,79
1780607928019,-0.134,79
1780607928027,0.051,79
1780607928035,0.313,79
1780607928042,0.403,79
1780607928050,0.106,79
1780607928058,-0.336,79
1780607928065,-0.44,79
1780607928073,-0.289,79
1780607928081,-0.236,79
1780607928088,-0.257,79
1780607928096,-0.245,79
1780607928104,-0.243,79
1780607928111,-0.257,79
1780607928119,-0.248,79
1780607928127,-0.227,79
1780607928135,-0.218,79
1780607928142,-0.211,79
1780607928126,-0.204,78
1780607928133,-0.208,78
1780607928141,-0.213,78
1780607928149,-0.197,78
1780607928157,-0.178,78
1780607928164,-0.171,78
1780607928172,-0.166,78
1780607928180,-0.166,78
1780607928187,-0.166,78
1780607928195,-0.157,78
1780607928203,-0.141,78
1780607928210,-0.136,78
1780607928218,-0.139,78
1780607928226,-0.141,78
1780607928233,-0.15,78
1780607928241,-0.157,78
1780607928249,-0.155,78
1780607928257,-0.155,78
1780607928264,-0.171,78
1780607928272,-0.192,78
1780607928280,-0.222,78
1780607928287,-0.245,78
1780607928295,-0.248,78
1780607928303,-0.25,78
1780607928310,-0.257,78
1780607928318,-0.259,78
1780607928326,-0.262,78
1780607928333,-0.269,78
1780607928341,-0.262,78
1780607928349,-0.25,78
1780607928357,-0.252,78
1780607928364,-0.252,78
1780607928372,-0.25,78
1780607928380,-0.264,78
1780607928387,-0.266,78
1780607928395,-0.252,78
1780607928403,-0.248,78
1780607928410,-0.243,78
1780607928418,-0.236,78
1780607928426,-0.243,78
1780607928433,-0.25,78
1780607928441,-0.236,78
1780607928449,-0.224,78
1780607928457,-0.227,78
1780607928464,-0.227,78
1780607928472,-0.231,78
1780607928480,-0.238,78
1780607928487,-0.231,78
1780607928495,-0.222,78
1780607928503,-0.222,78
1780607928510,-0.215,78
1780607928518,-0.208,78
1780607928526,-0.215,78
1780607928533,-0.22,78
1780607928541,-0.208,78
1780607928549,-0.199,78
1780607928557,-0.194,78
1780607928564,-0.194,78
1780607928572,-0.197,78
1780607928580,-0.199,78
1780607928587,-0.19,78
1780607928595,-0.178,78
1780607928603,-0.173,78
1780607928610,-0.169,78
1780607928618,-0.169,78
1780607928626,-0.18,78
1780607928633,-0.178,78
1780607928641,-0.166,78
1780607928649,-0.16,78
1780607928657,-0.155,78
1780607928664,-0.15,78
1780607928672,-0.153,78
1780607928680,-0.15,78
1780607929004,-0.139,78
1780607929011,-0.139,78
1780607929019,-0.141,78
1780607929027,-0.146,78
1780607929035,-0.15,78
1780607929042,-0.139,78
1780607929050,-0.113,78
1780607929058,-0.109,78
1780607929065,-0.12,78
1780607929073,-0.115,78
1780607929081,-0.118,78
1780607929088,-0.143,78
1780607929096,-0.166,78
1780607929104,-0.16,78
1780607929111,-0.141,78
1780607929119,-0.134,78
1780607929127,-0.146,78
1780607929135,-0.164,78
1780607929142,-0.162,78
1780607929150,-0.136,78
1780607929158,-0.081,78
1780607929165,0.06,78
1780607929173,0.315,78
1780607929181,0.496,78
1780607929188,0.299,78
1780607929196,-0.164,78
1780607929204,-0.368,78
1780607929211,-0.224,78
1780607929219,-0.127,78
1780607929227,-0.143,78
1780607929235,-0.136,78
1780607929242,-0.115,78
1780607929250,-0.111,78
1780607929258,-0.102,78
1780607929265,-0.092,78
1780607929273,-0.097,78
1780607929281,-0.088,78
1780607929288,-0.06,78
1780607929296,-0.032,78
1780607929304,-0.03,78
1780607929311,-0.03,78
1780607929319,-0.002,78
1780607929327,0.03,78
1780607929335,0.037,78
1780607929342,0.055,78
1780607929350,0.083,78
1780607929358,0.083,78
1780607929365,0.067,78
1780607929373,0.064,78
1780607929381,0.064,78
1780607929388,0.048,78
1780607929396,0.034,78
1780607929404,0.03,78
1780607929411,0.004,78
1780607929419,-0.046,78
1780607929427,-0.09,78
1780607929435,-0.109,78
1780607929442,-0.132,78
1780607929450,-0.155,78
1780607929458,-0.164,78
1780607929465,-0.173,78
1780607929473,-0.204,78
1780607929481,-0.231,78
1780607929488,-0.236,78
1780607929496,-0.234,78
1780607929504,-0.229,78
1780607929511,-0.213,78
1780607929519,-0.208,78
1780607929527,-0.213,78
1780607929535,-0.206,78
1780607929542,-0.201,78
1780607929550,-0.194,78
1780607929558,-0.183,78
1780607929636,-0.176,77
1780607929644,-0.183,77
1780607929652,-0.19,77
1780607929660,-0.192,77
1780607929667,-0.199,77
1780607929675,-0.187,77
1780607929683,-0.164,77
1780607929690,-0.162,77
1780607929698,-0.157,77
1780607929706,-0.129,77
1780607929713,-0.129,77
1780607929721,-0.16,77
1780607929729,-0.173,77
1780607929736,-0.173,77
1780607929744,-0.201,77
1780607929752,-0.224,77
1780607929760,-0.222,77
1780607929767,-0.22,77
1780607929775,-0.224,77
1780607929783,-0.227,77
1780607929790,-0.238,77
1780607929798,-0.243,77
1780607929806,-0.231,77
1780607929813,-0.227,77
1780607929821,-0.224,77
1780607929829,-0.227,77
1780607929836,-0.241,77
1780607929844,-0.245,77
1780607929852,-0.231,77
1780607929860,-0.222,77
1780607929867,-0.206,77
1780607929875,-0.178,77
1780607929883,-0.18,77
1780607929890,-0.206,77
1780607929898,-0.206,77
1780607929906,-0.187,77
1780607929913,-0.192,77
1780607929921,-0.206,77
1780607929929,-0.213,77
1780607929936,-0.224,77
1780607929944,-0.224,77
1780607929952,-0.206,77
1780607929960,-0.204,77
1780607929967,-0.218,77
1780607929975,-0.22,77
1780607929983,-0.201,77
1780607929990,-0.122,77
1780607929998,0.104,77
1780607930006,0.403,77
1780607930013,0.454,77
1780607930021,0.062,77
1780607930029,-0.415,77
1780607930036,-0.459,77
1780607930044,-0.262,77
1780607930052,-0.215,77
1780607930060,-0.218,77
1780607930067,-0.176,77
1780607930075,-0.176,77
1780607930083,-0.192,77
1780607930090,-0.176,77
1780607930098,-0.155,77
1780607930106,-0.153,77
1780607930113,-0.146,77
1780607930121,-0.136,77
1780607930129,-0.141,77
1780607930136,-0.143,77
1780607930144,-0.127,77
1780607930152,-0.111,77
1780607930160,-0.099,77
1780607930167,-0.09,77
1780607930175,-0.09,77
1780607930183,-0.092,77
1780607930190,-0.081,77
1780607930271,-0.064,77
1780607930278,-0.055,77
1780607930286,-0.048,77
1780607930294,-0.051,77
1780607930302,-0.064,77
1780607930309,-0.078,77
1780607930317,-0.085,77
1780607930325,-0.095,77
1780607930332,-0.118,77
1780607930340,-0.146,77
1780607930348,-0.178,77
1780607930355,-0.201,77
1780607930363,-0.208,77
1780607930371,-0.208,77
1780607930378,-0.213,77
1780607930386,-0.218,77
1780607930394,-0.215,77
1780607930402,-0.215,77
1780607930409,-0.208,77
1780607930417,-0.201,77
1780607930425,-0.201,77
1780607930432,-0.206,77
1780607930440,-0.201,77
1780607930448,-0.197,77
1780607930455,-0.192,77
1780607930463,-0.185,77
1780607930471,-0.178,77
1780607930478,-0.176,77
1780607930486,-0.173,77
1780607930494,-0.18,77
1780607930502,-0.187,77
1780607930509,-0.178,77
1780607930517,-0.171,77
1780607930525,-0.176,77
1780607930532,-0.171,77
1780607930540,-0.166,77
1780607930548,-0.178,77
1780607930555,-0.185,77
1780607930563,-0.173,77
1780607930571,-0.171,77
1780607930578,-0.173,77
1780607930586,-0.176,77
1780607930594,-0.185,77
1780607930602,-0.19,77
1780607930609,-0.187,77
1780607930617,-0.187,77
1780607930625,-0.187,77
1780607930632,-0.18,77
1780607930640,-0.18,77
1780607930648,-0.183,77
1780607930655,-0.183,77
1780607930663,-0.18,77
1780607930671,-0.169,77
1780607930678,-0.143,77
1780607930686,-0.129,77
1780607930694,-0.141,77
1780607930702,-0.15,77
1780607930709,-0.143,77
1780607930717,-0.139,77
1780607930725,-0.15,77
1780607930732,-0.169,77
1780607930740,-0.183,77
1780607930748,-0.185,77
1780607930755,-0.176,77
1780607930763,-0.166,77
1780607930771,-0.164,77
1780607930778,-0.164,77
1780607930786,-0.164,77
1780607930794,-0.134,77
1780607930802,-0.006,77
1780607930809,0.248,77
1780607930817,0.487,77
1780607930825,0.405,77
1780607930854,-0.057,76
1780607930862,-0.417,76
1780607930869,-0.338,76
1780607930877,-0.183,76
1780607930885,-0.18,76
1780607930893,-0.169,76
1780607930900,-0.141,76
1780607930908,-0.153,76
1780607930916,-0.16,76
1780607930923,-0.143,76
1780607930931,-0.132,76
1780607930939,-0.127,76
1780607930946,-0.125,76
1780607930954,-0.132,76
1780607930962,-0.139,76
1780607930969,-0.122,76
1780607930977,-0.104,76
1780607930985,-0.102,76
1780607930993,-0.097,76
1780607931000,-0.092,76
1780607931008,-0.095,76
1780607931016,-0.088,76
1780607931023,-0.069,76
1780607931031,-0.055,76
1780607931039,-0.048,76
1780607931046,-0.041,76
1780607931054,-0.044,76
1780607931062,-0.051,76
1780607931069,-0.06,76
1780607931077,-0.076,76
1780607931085,-0.095,76
1780607931093,-0.115,76
1780607931100,-0.148,76
1780607931108,-0.178,76
1780607931116,-0.185,76
1780607931123,-0.187,76
1780607931131,-0.19,76
1780607931139,-0.19,76
1780607931146,-0.192,76
1780607931154,-0.197,76
1780607931162,-0.199,76
1780607931169,-0.19,76
1780607931177,-0.178,76
1780607931185,-0.176,76
1780607931193,-0.178,76
1780607931200,-0.187,76
1780607931208,-0.187,76
1780607931216,-0.173,76
1780607931223,-0.16,76
1780607931231,-0.157,76
1780607931239,-0.162,76
1780607931246,-0.171,76
1780607931254,-0.173,76
1780607931262,-0.162,76
1780607931269,-0.153,76
1780607931277,-0.16,76
1780607931285,-0.162,76
1780607931293,-0.166,76
1780607931300,-0.176,76
1780607931308,-0.173,76
1780607931316,-0.16,76
1780607931323,-0.16,76
1780607931331,-0.162,76
1780607931339,-0.162,76
1780607931346,-0.173,76
1780607931354,-0.176,76
1780607931362,-0.162,76
1780607931369,-0.155,76
1780607931377,-0.157,76
1780607931385,-0.155,76
1780607931393,-0.16,76
1780607931400,-0.171,76
1780607931408,-0.166,76
1780607931343,-0.16,76
1780607931351,-0.157,76
1780607931358,-0.153,76
1780607931366,-0.143,76
1780607931374,-0.134,76
1780607931381,-0.127,76
1780607931389,-0.134,76
1780607931397,-0.146,76
1780607931404,-0.141,76
1780607931412,-0.143,76
1780607931420,-0.169,76
1780607931427,-0.185,76
1780607931435,-0.176,76
1780607931443,-0.164,76
1780607931451,-0.164,76
1780607931458,-0.157,76
1780607931466,-0.15,76
1780607931474,-0.148,76
1780607931481,-0.139,76
1780607931489,-0.095,76
1780607931497,0.034,76
1780607931504,0.262,76
1780607931512,0.433,76
1780607931520,0.264,76
1780607931527,-0.183,76
1780607931535,-0.403,76
1780607931543,-0.271,76
1780607931551,-0.164,76
1780607931558,-0.173,76
1780607931566,-0.171,76
1780607931574,-0.166,76
1780607931581,-0.173,76
1780607931589,-0.16,76
1780607931597,-0.143,76
1780607931604,-0.139,76
1780607931612,-0.143,76
1780607931620,-0.148,76
1780607931627,-0.136,76
1780607931635,-0.12,76
1780607931643,-0.111,76
1780607931651,-0.106,76
1780607931658,-0.102,76
1780607931666,-0.106,76
1780607931674,-0.097,76
1780607931681,-0.081,76
1780607931689,-0.069,76
1780607931697,-0.055,76
1780607931704,-0.046,76
1780607931712,-0.057,76
1780607931720,-0.062,76
1780607931727,-0.055,76
1780607931735,-0.048,76
1780607931743,-0.057,76
1780607931751,-0.067,76
1780607931758,-0.088,76
1780607931766,-0.12,76
1780607931774,-0.139,76
1780607931781,-0.148,76
1780607931789,-0.162,76
1780607931797,-0.169,76
1780607931804,-0.18,76
1780607931812,-0.201,76
1780607931820,-0.206,76
1780607931827,-0.197,76
1780607931835,-0.194,76
1780607931843,-0.187,76
1780607931851,-0.185,76
1780607931858,-0.192,76
1780607931866,-0.192,76
1780607931874,-0.178,76
1780607931881,-0.171,76
1780607931889,-0.169,76
1780607931897,-0.164,76
1780607932123,-0.169,75
1780607932130,-0.178,75
1780607932138,-0.166,75
1780607932146,-0.155,75
1780607932153,-0.15,75
1780607932161,-0.148,75
1780607932169,-0.15,75
1780607932176,-0.15,75
1780607932184,-0.143,75
1780607932192,-0.139,75
1780607932200,-0.141,75
1780607932207,-0.141,75
1780607932215,-0.139,75
1780607932223,-0.141,75
1780607932230,-0.146,75
1780607932238,-0.143,75
1780607932246,-0.136,75
1780607932253,-0.139,75
1780607932261,-0.146,75
1780607932269,-0.155,75
1780607932276,-0.166,75
1780607932284,-0.166,75
1780607932292,-0.162,75
1780607932300,-0.164,75
1780607932307,-0.16,75
1780607932315,-0.16,75
1780607932323,-0.166,75
1780607932330,-0.164,75
1780607932338,-0.15,75
1780607932346,-0.136,75
1780607932353,-0.113,75
1780607932361,-0.097,75
1780607932369,-0.113,75
1780607932376,-0.127,75
1780607932384,-0.109,75
1780607932392,-0.09,75
1780607932400,-0.095,75
1780607932407,-0.097,75
1780607932415,-0.081,75
1780607932423,-0.064,75
1780607932430,-0.051,75
1780607932438,-0.044,75
1780607932446,-0.041,75
1780607932453,-0.037,75
1780607932461,-0.03,75
1780607932469,0.0,75
1780607932476,0.122,75
1780607932484,0.366,75
1780607932492,0.582,75
1780607932500,0.519,75
1780607932507,0.183,75
1780607932515,-0.025,75
1780607932523,0.088,75
1780607932530,0.22,75
1780607932538,0.229,75
1780607932546,0.25,75
1780607932553,0.289,75
1780607932561,0.266,75
1780607932569,0.208,75
1780607932576,0.178,75
1780607932584,0.153,75
1780607932592,0.088,75
1780607932600,0.013,75
1780607932607,-0.034,75
1780607932615,-0.074,75
1780607932623,-0.111,75
1780607932630,-0.136,75
1780607932638,-0.164,75
1780607932646,-0.187,75
1780607932653,-0.206,75
1780607932661,-0.218,75
1780607932669,-0.218,75
1780607932676,-0.204,75
1780607932852,-0.178,75
1780607932860,-0.136,75
1780607932868,-0.115,75
1780607932875,-0.153,75
1780607932883,-0.18,75
1780607932891,-0.18,75
1780607932898,-0.197,75
1780607932906,-0.208,75
1780607932914,-0.197,75
1780607932921,-0.171,75
1780607932929,-0.143,75
1780607932937,-0.104,75
1780607932945,-0.062,75
1780607932952,-0.053,75
1780607932960,-0.044,75
1780607932968,-0.02,75
1780607932975,-0.034,75
1780607932983,-0.062,75
1780607932991,-0.055,75
1780607932998,-0.037,75
1780607933006,-0.039,75
1780607933014,-0.046,75
1780607933021,-0.055,75
1780607933029,-0.09,75
1780607933037,-0.134,75
1780607933045,-0.169,75
1780607933052,-0.194,75
1780607933060,-0.213,75
1780607933068,-0.227,75
1780607933075,-0.243,75
1780607933083,-0.252,75
1780607933091,-0.255,75
1780607933098,-0.252,75
1780607933106,-0.257,75
1780607933114,-0.269,75
1780607933121,-0.266,75
1780607933129,-0.252,75
1780607933137,-0.241,75
1780607933145,-0.238,75
1780607933152,-0.229,75
1780607933160,-0.224,75
1780607933168,-0.245,75
1780607933175,-0.252,75
1780607933183,-0.234,75
1780607933191,-0.229,75
1780607933198,-0.241,75
1780607933206,-0.236,75
1780607933214,-0.245,75
1780607933221,-0.266,75
1780607933229,-0.264,75
1780607933237,-0.245,75
1780607933245,-0.238,75
1780607933252,-0.231,75
1780607933260,-0.213,75
1780607933268,-0.192,75
1780607933275,-0.183,75
1780607933283,-0.183,75
1780607933291,-0.171,75
1780607933298,-0.16,75
1780607933306,-0.157,75
1780607933314,-0.169,75
1780607933321,-0.183,75
1780607933329,-0.176,75
1780607933337,-0.153,75
1780607933345,-0.153,75
1780607933352,-0.16,75
1780607933360,-0.157,75
1780607933368,-0.146,75
1780607933375,-0.115,75
1780607933383,-0.085,75
1780607933391,-0.006,75
1780607933398,0.231,75
1780607933406,0.48,75
1780607933730,0.382,75
1780607933738,-0.02,75
1780607933745,-0.187,75
1780607933753,-0.013,75
1780607933761,0.09,75
1780607933769,0.106,75
1780607933776,0.164,75
1780607933784,0.171,75
1780607933792,0.143,75
1780607933799,0.16,75
1780607933807,0.18,75
1780607933815,0.176,75
1780607933822,0.173,75
1780607933830,0.173,75
1780607933838,0.173,75
1780607933845,0.176,75
1780607933853,0.183,75
1780607933861,0.187,75
1780607933869,0.194,75
1780607933876,0.197,75
1780607933884,0.192,75
1780607933892,0.201,75
1780607933899,0.22,75
1780607933907,0.227,75
1780607933915,0.227,75
1780607933922,0.227,75
1780607933930,0.227,75
1780607933938,0.215,75
1780607933945,0.185,75
1780607933953,0.146,75
1780607933961,0.127,75
1780607933969,0.141,75
1780607933976,0.129,75
1780607933984,0.095,75
1780607933992,0.097,75
1780607933999,0.106,75
1780607934007,0.074,75
1780607934015,0.034,75
1780607934022,0.027,75
1780607934030,0.023,75
1780607934038,0.013,75
1780607934045,0.011,75
1780607934053,0.02,75
1780607934061,0.027,75
1780607934069,0.034,75
1780607934076,0.03,75
1780607934084,0.027,75
1780607934092,0.041,75
1780607934099,0.06,75
1780607934107,0.067,75
1780607934115,0.06,75
1780607934122,0.051,75
1780607934130,0.055,75
1780607934138,0.069,75
1780607934145,0.076,75
1780607934153,0.071,75
1780607934161,0.074,75
1780607934169,0.074,75
1780607934176,0.057,75
1780607934184,0.046,75
1780607934192,0.041,75
1780607934199,0.032,75
1780607934207,0.013,75
1780607934215,-0.013,75
1780607934222,-0.011,75
1780607934230,0.041,75
1780607934238,0.048,75
1780607934245,-0.088,75
1780607934253,-0.313,75
1780607934261,-0.47,75
1780607934269,-0.517,75
1780607934276,-0.521,75
1780607934284,-0.528,75
1780607934314,-0.526,76
1780607934322,-0.517,76
1780607934330,-0.524,76
1780607934337,-0.535,76
1780607934345,-0.519,76
1780607934353,-0.494,76
1780607934360,-0.484,76
1780607934368,-0.47,76
1780607934376,-0.456,76
1780607934384,-0.468,76
1780607934391,-0.47,76
1780607934399,-0.44,76
1780607934407,-0.412,76
1780607934414,-0.385,76
1780607934422,-0.361,76
1780607934430,-0.371,76
1780607934437,-0.371,76
1780607934445,-0.315,76
1780607934453,-0.25,76
1780607934460,-0.211,76
1780607934468,-0.178,76
1780607934476,-0.139,76
1780607934484,-0.088,76
1780607934491,-0.037,76
1780607934499,0.004,76
1780607934507,0.027,76
1780607934514,0.041,76
1780607934522,0.074,76
1780607934530,0.127,76
1780607934537,0.204,76
1780607934545,0.378,76
1780607934553,0.619,76
1780607934560,0.642,76
1780607934568,0.269,76
1780607934576,-0.113,76
1780607934584,-0.104,76
1780607934591,0.041,76
1780607934599,0.06,76
1780607934607,0.051,76
1780607934614,0.051,76
1780607934622,0.02,76
1780607934630,-0.046,76
1780607934637,-0.136,76
1780607934645,-0.231,76
1780607934653,-0.331,76
1780607934660,-0.398,76
1780607934668,-0.417,76
1780607934676,-0.447,76
1780607934684,-0.47,76
1780607934691,-0.454,76
1780607934699,-0.44,76
1780607934707,-0.445,76
1780607934714,-0.438,76
1780607934722,-0.419,76
1780607934730,-0.408,76
1780607934737,-0.394,76
1780607934745,-0.387,76
1780607934753,-0.391,76
1780607934760,-0.385,76
1780607934768,-0.375,76
1780607934776,-0.38,76
1780607934784,-0.373,76
1780607934791,-0.357,76
1780607934799,-0.359,76
1780607934807,-0.364,76
1780607934814,-0.354,76
1780607934822,-0.352,76
1780607934830,-0.359,76
1780607934837,-0.354,76
1780607934845,-0.329,76
1780607934853,-0.296,76
1780607934860,-0.271,76
1780607934868,-0.264,76
1780607935045,-0.264,76
1780607935052,-0.238,76
1780607935060,-0.194,76
1780607935068,-0.171,76
1780607935075,-0.178,76
1780607935083,-0.208,76
1780607935091,-0.257,76
1780607935099,-0.285,76
1780607935106,-0.287,76
1780607935114,-0.285,76
1780607935122,-0.287,76
1780607935129,-0.287,76
1780607935137,-0.299,76
1780607935145,-0.315,76
1780607935152,-0.31,76
1780607935160,-0.301,76
1780607935168,-0.299,76
1780607935175,-0.303,76
1780607935183,-0.317,76
1780607935191,-0.331,76
1780607935199,-0.32,76
1780607935206,-0.296,76
1780607935214,-0.296,76
1780607935222,-0.292,76
1780607935229,-0.282,76
1780607935237,-0.285,76
1780607935245,-0.285,76
1780607935252,-0.266,76
1780607935260,-0.255,76
1780607935268,-0.25,76
1780607935275,-0.243,76
1780607935283,-0.248,76
1780607935291,-0.255,76
1780607935299,-0.245,76
1780607935306,-0.231,76
1780607935314,-0.229,76
1780607935322,-0.22,76
1780607935329,-0.218,76
1780607935337,-0.218,76
1780607935345,-0.19,76
1780607935352,-0.166,76
1780607935360,-0.176,76
1780607935368,-0.178,76
1780607935375,-0.169,76
1780607935383,-0.183,76
1780607935391,-0.199,76
1780607935399,-0.197,76
1780607935406,-0.187,76
1780607935414,-0.178,76
1780607935422,-0.173,76
1780607935429,-0.176,76
1780607935437,-0.178,76
1780607935445,-0.166,76
1780607935452,-0.15,76
1780607935460,-0.109,76
1780607935468,0.02,76
1780607935475,0.271,76
1780607935483,0.47,76
1780607935491,0.301,76
1780607935499,-0.171,76
1780607935506,-0.405,76
1780607935514,-0.269,76
1780607935522,-0.166,76
1780607935529,-0.19,76
1780607935537,-0.173,76
1780607935545,-0.146,76
1780607935552,-0.15,76
1780607935560,-0.141,76
1780607935568,-0.125,76
1780607935575,-0.129,76
1780607935583,-0.134,76
1780607935591,-0.118,76
1780607935599,-0.102,76
1780607935582,-0.097,77
1780607935590,-0.09,77
1780607935598,-0.085,77
1780607935605,-0.088,77
1780607935613,-0.078,77
1780607935621,-0.06,77
1780607935628,-0.051,77
1780607935636,-0.044,77
1780607935644,-0.032,77
1780607935651,-0.027,77
1780607935659,-0.023,77
1780607935667,-0.016,77
1780607935675,-0.011,77
1780607935682,-0.013,77
1780607935690,-0.016,77
1780607935698,-0.027,77
1780607935705,-0.039,77
1780607935713,-0.053,77
1780607935721,-0.067,77
1780607935728,-0.081,77
1780607935736,-0.088,77
1780607935744,-0.097,77
1780607935751,-0.102,77
1780607935759,-0.102,77
1780607935767,-0.099,77
1780607935775,-0.099,77
1780607935782,-0.095,77
1780607935790,-0.09,77
1780607935798,-0.095,77
1780607935805,-0.102,77
1780607935813,-0.097,77
1780607935821,-0.09,77
1780607935828,-0.09,77
1780607935836,-0.088,77
1780607935844,-0.09,77
1780607935851,-0.099,77
1780607935859,-0.09,77
1780607935867,-0.076,77
1780607935875,-0.074,77
1780607935882,-0.067,77
1780607935890,-0.057,77
1780607935898,-0.034,77
1780607935905,0.027,77
1780607935913,0.106,77
1780607935921,0.155,77
1780607935928,0.197,77
1780607935936,0.243,77
1780607935944,0.278,77
1780607935951,0.299,77
1780607935959,0.31,77
1780607935967,0.317,77
1780607935975,0.327,77
1780607935982,0.331,77
1780607935990,0.327,77
1780607935998,0.313,77
1780607936005,0.303,77
1780607936013,0.296,77
1780607936021,0.276,77
1780607936028,0.25,77
1780607936036,0.213,77
1780607936044,0.148,77
1780607936051,0.085,77
1780607936059,0.046,77
1780607936067,-0.018,77
1780607936075,-0.097,77
1780607936082,-0.122,77
1780607936090,-0.153,77
1780607936098,-0.238,77
1780607936105,-0.299,77
1780607936113,-0.301,77
1780607936121,-0.315,77
1780607936128,-0.345,77
1780607936136,-0.368,77
1780607936264,-0.385,77
1780607936272,-0.389,77
1780607936280,-0.389,77
1780607936288,-0.389,77
1780607936295,-0.391,77
1780607936303,-0.408,77
1780607936311,-0.417,77
1780607936318,-0.378,77
1780607936326,-0.257,77
1780607936334,-0.034,77
1780607936341,0.15,77
1780607936349,-0.002,77
1780607936357,-0.452,77
1780607936364,-0.672,77
1780607936372,-0.528,77
1780607936380,-0.419,77
1780607936388,-0.424,77
1780607936395,-0.405,77
1780607936403,-0.401,77
1780607936411,-0.412,77
1780607936418,-0.396,77
1780607936426,-0.368,77
1780607936434,-0.343,77
1780607936441,-0.324,77
1780607936449,-0.336,77
1780607936457,-0.352,77
1780607936464,-0.345,77
1780607936472,-0.333,77
1780607936480,-0.329,77
1780607936488,-0.32,77
1780607936495,-0.313,77
1780607936503,-0.315,77
1780607936511,-0.308,77
1780607936518,-0.287,77
1780607936526,-0.28,77
1780607936534,-0.287,77
1780607936541,-0.282,77
1780607936549,-0.278,77
1780607936557,-0.276,77
1780607936564,-0.271,77
1780607936572,-0.273,77
1780607936580,-0.287,77
1780607936588,-0.301,77
1780607936595,-0.327,77
1780607936603,-0.359,77
1780607936611,-0.371,77
1780607936618,-0.371,77
1780607936626,-0.387,77
1780607936634,-0.403,77
1780607936641,-0.401,77
1780607936649,-0.405,77
1780607936657,-0.405,77
1780607936664,-0.398,77
1780607936672,-0.398,77
1780607936680,-0.398,77
1780607936688,-0.391,77
1780607936695,-0.391,77
1780607936703,-0.394,77
1780607936711,-0.378,77
1780607936718,-0.361,77
1780607936726,-0.357,77
1780607936734,-0.347,77
1780607936741,-0.338,77
1780607936749,-0.338,77
1780607936757,-0.338,77
1780607936764,-0.331,77
1780607936772,-0.322,77
1780607936780,-0.315,77
1780607936788,-0.315,77
1780607936795,-0.324,77
1780607936803,-0.322,77
1780607936811,-0.306,77
1780607936818,-0.299,77
1780607936799,-0.294,77
1780607936807,-0.287,77
1780607936815,-0.294,77
1780607936822,-0.296,77
1780607936830,-0.285,77
1780607936838,-0.273,77
1780607936845,-0.266,77
1780607936853,-0.259,77
1780607936861,-0.264,77
1780607936868,-0.278,77
1780607936876,-0.273,77
1780607936884,-0.257,77
1780607936892,-0.248,77
1780607936899,-0.241,77
1780607936907,-0.238,77
1780607936915,-0.248,77
1780607936922,-0.248,77
1780607936930,-0.215,77
1780607936938,-0.185,77
1780607936945,-0.185,77
1780607936953,-0.199,77
1780607936961,-0.199,77
1780607936968,-0.201,77
1780607936976,-0.213,77
1780607936984,-0.22,77
1780607936992,-0.218,77
1780607936999,-0.208,77
1780607937007,-0.215,77
1780607937015,-0.224,77
1780607937022,-0.215,77
1780607937030,-0.199,77
1780607937038,-0.192,77
1780607937045,-0.164,77
1780607937053,-0.081,77
1780607937061,0.111,77
1780607937068,0.364,77
1780607937076,0.396,77
1780607937084,0.018,77
1780607937092,-0.382,77
1780607937099,-0.371,77
1780607937107,-0.215,77
1780607937115,-0.206,77
1780607937122,-0.197,77
1780607937130,-0.162,77
1780607937138,-0.166,77
1780607937145,-0.16,77
1780607937153,-0.143,77
1780607937161,-0.15,77
1780607937168,-0.139,77
1780607937176,-0.113,77
1780607937184,-0.109,77
1780607937192,-0.106,77
1780607937199,-0.092,77
1780607937207,-0.099,77
1780607937215,-0.104,77
1780607937222,-0.09,77
1780607937230,-0.069,77
1780607937238,-0.057,77
1780607937245,-0.048,77
1780607937253,-0.048,77
1780607937261,-0.046,77
1780607937268,-0.03,77
1780607937276,-0.013,77
1780607937284,-0.011,77
1780607937292,-0.013,77
1780607937299,-0.027,77
1780607937307,-0.051,77
1780607937315,-0.06,77
1780607937322,-0.064,77
1780607937330,-0.083,77
1780607937338,-0.099,77
1780607937345,-0.109,77
1780607937353,-0.118,77
1780607937433,-0.12,77
1780607937441,-0.115,77
1780607937449,-0.113,77
1780607937457,-0.113,77
1780607937464,-0.111,77
1780607937472,-0.097,77
1780607937480,-0.071,77
1780607937487,-0.051,77
1780607937495,-0.064,77
1780607937503,-0.085,77
1780607937510,-0.076,77
1780607937518,-0.069,77
1780607937526,-0.083,77
1780607937533,-0.092,77
1780607937541,-0.097,77
1780607937549,-0.095,77
1780607937557,-0.085,77
1780607937564,-0.083,77
1780607937572,-0.09,77
1780607937580,-0.092,77
1780607937587,-0.09,77
1780607937595,-0.092,77
1780607937603,-0.095,77
1780607937610,-0.097,77
1780607937618,-0.102,77
1780607937626,-0.102,77
1780607937633,-0.081,77
1780607937641,-0.069,77
1780607937649,-0.09,77
1780607937657,-0.099,77
1780607937664,-0.088,77
1780607937672,-0.076,77
1780607937680,-0.071,77
1780607937687,-0.074,77
1780607937695,-0.085,77
1780607937703,-0.085,77
1780607937710,-0.088,77
1780607937718,-0.099,77
1780607937726,-0.102,77
1780607937733,-0.095,77
1780607937741,-0.085,77
1780607937749,-0.062,77
1780607937757,-0.046,77
1780607937764,-0.067,77
1780607937772,-0.09,77
1780607937780,-0.076,77
1780607937787,-0.069,77
1780607937795,-0.085,77
1780607937803,-0.102,77
1780607937810,-0.104,77
1780607937818,-0.109,77
1780607937826,-0.104,77
1780607937833,-0.099,77
1780607937841,-0.099,77
1780607937849,-0.097,77
1780607937857,-0.09,77
1780607937864,-0.062,77
1780607937872,0.069,77
1780607937880,0.338,77
1780607937887,0.538,77
1780607937895,0.364,77
1780607937903,-0.106,77
1780607937910,-0.352,77
1780607937918,-0.229,77
1780607937926,-0.118,77
1780607937933,-0.129,77
1780607937941,-0.118,77
1780607937949,-0.097,77
1780607937957,-0.109,77
1780607937964,-0.115,77
1780607937972,-0.104,77
1780607937980,-0.092,77
1780607937987,-0.09,77
1780607938262,-0.078,77
1780607938270,-0.067,77
1780607938277,-0.074,77
1780607938285,-0.076,77
1780607938293,-0.067,77
1780607938301,-0.062,77
1780607938308,-0.06,77
1780607938316,-0.048,77
1780607938324,-0.044,77
1780607938331,-0.051,77
1780607938339,-0.044,77
1780607938347,-0.03,77
1780607938354,-0.03,77
1780607938362,-0.039,77
1780607938370,-0.046,77
1780607938377,-0.06,77
1780607938385,-0.074,77
1780607938393,-0.076,77
1780607938401,-0.081,77
1780607938408,-0.092,77
1780607938416,-0.111,77
1780607938424,-0.139,77
1780607938431,-0.155,77
1780607938439,-0.148,77
1780607938447,-0.146,77
1780607938454,-0.148,77
1780607938462,-0.148,77
1780607938470,-0.155,77
1780607938477,-0.162,77
1780607938485,-0.153,77
1780607938493,-0.141,77
1780607938501,-0.136,77
1780607938508,-0.129,77
1780607938516,-0.129,77
1780607938524,-0.141,77
1780607938531,-0.136,77
1780607938539,-0.127,77
1780607938547,-0.127,77
1780607938554,-0.127,77
1780607938562,-0.125,77
1780607938570,-0.132,77
1780607938577,-0.134,77
1780607938585,-0.12,77
1780607938593,-0.113,77
1780607938601,-0.113,77
1780607938608,-0.111,77
1780607938616,-0.115,77
1780607938624,-0.127,77
1780607938631,-0.122,77
1780607938639,-0.113,77
1780607938647,-0.115,77
1780607938654,-0.113,77
1780607938662,-0.109,77
1780607938670,-0.118,77
1780607938677,-0.12,77
1780607938685,-0.111,77
1780607938693,-0.109,77
1780607938701,-0.106,77
1780607938708,-0.104,77
1780607938716,-0.111,77
1780607938724,-0.118,77
1780607938731,-0.109,77
1780607938739,-0.099,77
1780607938747,-0.097,77
1780607938754,-0.097,77
1780607938762,-0.099,77
1780607938770,-0.09,77
1780607938777,-0.069,77
1780607938785,-0.076,77
1780607938793,-0.095,77
1780607938801,-0.09,77
1780607938808,-0.085,77
1780607938816,-0.111,77
1780607938993,-0.127,77
1780607939001,-0.118,77
1780607939009,-0.111,77
1780607939016,-0.111,77
1780607939024,-0.106,77
1780607939032,-0.113,77
1780607939039,-0.12,77
1780607939047,-0.111,77
1780607939055,-0.076,77
1780607939062,0.02,77
1780607939070,0.234,77
1780607939078,0.452,77
1780607939085,0.385,77
1780607939093,-0.02,77
1780607939101,-0.322,77
1780607939109,-0.255,77
1780607939116,-0.129,77
1780607939124,-0.132,77
1780607939132,-0.141,77
1780607939139,-0.129,77
1780607939147,-0.127,77
1780607939155,-0.12,77
1780607939162,-0.109,77
1780607939170,-0.106,77
1780607939178,-0.115,77
1780607939185,-0.115,77
1780607939193,-0.104,77
1780607939201,-0.097,77
1780607939209,-0.097,77
1780607939216,-0.088,77
1780607939224,-0.088,77
1780607939232,-0.097,77
1780607939239,-0.09,77
1780607939247,-0.074,77
1780607939255,-0.06,77
1780607939262,-0.051,77
1780607939270,-0.046,77
1780607939278,-0.055,77
1780607939285,-0.057,77
1780607939293,-0.051,77
1780607939301,-0.048,77
1780607939309,-0.053,77
1780607939316,-0.055,77
1780607939324,-0.062,77
1780607939332,-0.081,77
1780607939339,-0.095,77
1780607939347,-0.104,77
1780607939355,-0.113,77
1780607939362,-0.125,77
1780607939370,-0.146,77
1780607939378,-0.157,77
1780607939385,-0.15,77
1780607939393,-0.143,77
1780607939401,-0.143,77
1780607939409,-0.139,77
1780607939416,-0.134,77
1780607939424,-0.132,77
1780607939432,-0.122,77
1780607939439,-0.113,77
1780607939447,-0.115,77
1780607939455,-0.12,77
1780607939462,-0.118,77
1780607939470,-0.122,77
1780607939478,-0.129,77
1780607939485,-0.12,77
1780607939493,-0.109,77
1780607939501,-0.102,77
1780607939509,-0.083,77
1780607939516,-0.051,77
1780607939524,-0.009,77
1780607939532,0.032,77
1780607939539,0.064,77
1780607939547,0.083,77
1780607939530,0.092,77
1780607939538,0.083,77
1780607939545,0.067,77
1780607939553,0.048,77
1780607939561,0.027,77
1780607939568,0.018,77
1780607939576,0.023,77
1780607939584,0.011,77
1780607939591,-0.009,77
1780607939599,-0.02,77
1780607939607,-0.023,77
1780607939615,-0.032,77
1780607939622,-0.044,77
1780607939630,-0.053,77
1780607939638,-0.078,77
1780607939645,-0.115,77
1780607939653,-0.139,77
1780607939661,-0.153,77
1780607939668,-0.166,77
1780607939676,-0.176,77
1780607939684,-0.164,77
1780607939691,-0.155,77
1780607939699,-0.16,77
1780607939707,-0.169,77
1780607939715,-0.166,77
1780607939722,-0.162,77
1780607939730,-0.176,77
1780607939738,-0.204,77
1780607939745,-0.213,77
1780607939753,-0.197,77
1780607939761,-0.194,77
1780607939768,-0.194,77
1780607939776,-0.185,77
1780607939784,-0.185,77
1780607939791,-0.18,77
1780607939799,-0.146,77
1780607939807,-0.06,77
1780607939815,0.127,77
1780607939822,0.364,77
1780607939830,0.357,77
1780607939838,-0.046,77
1780607939845,-0.422,77
1780607939853,-0.38,77
1780607939861,-0.22,77
1780607939868,-0.208,77
1780607939876,-0.199,77
1780607939884,-0.171,77
1780607939891,-0.183,77
1780607939899,-0.183,77
1780607939907,-0.164,77
1780607939915,-0.162,77
1780607939922,-0.164,77
1780607939930,-0.162,77
1780607939938,-0.157,77
1780607939945,-0.143,77
1780607939953,-0.127,77
1780607939961,-0.113,77
1780607939968,-0.092,77
1780607939976,-0.067,77
1780607939984,-0.044,77
1780607939991,-0.02,77
1780607939999,0.013,77
1780607940007,0.062,77
1780607940015,0.109,77
1780607940022,0.143,77
1780607940030,0.139,77
1780607940038,0.102,77
1780607940045,0.097,77
1780607940053,0.129,77
1780607940061,0.148,77
1780607940068,0.143,77
1780607940076,0.095,77
1780607940084,-0.002,77
1780607940114,-0.069,77
1780607940122,-0.069,77
1780607940130,-0.069,77
1780607940137,-0.106,77
1780607940145,-0.153,77
1780607940153,-0.173,77
1780607940160,-0.16,77
1780607940168,-0.132,77
1780607940176,-0.118,77
1780607940183,-0.132,77
1780607940191,-0.171,77
1780607940199,-0.211,77
1780607940207,-0.229,77
1780607940214,-0.227,77
1780607940222,-0.22,77
1780607940230,-0.206,77
1780607940237,-0.19,77
1780607940245,-0.192,77
1780607940253,-0.194,77
1780607940260,-0.169,77
1780607940268,-0.146,77
1780607940276,-0.139,77
1780607940283,-0.132,77
1780607940291,-0.134,77
1780607940299,-0.148,77
1780607940307,-0.155,77
1780607940314,-0.132,77
1780607940322,-0.097,77
1780607940330,-0.06,77
1780607940337,-0.009,77
1780607940345,0.044,77
1780607940353,0.106,77
1780607940360,0.215,77
1780607940368,0.507,77
1780607940376,1.055,77
1780607940383,1.493,77
1780607940391,1.584,77
1780607940399,1.565,77
1780607940407,1.544,77
1780607940414,1.424,77
1780607940422,1.247,77
1780607940430,1.087,77
1780607940437,0.909,77
1780607940445,0.686,77
1780607940453,0.48,77
1780607940460,0.264,77
1780607940468,-0.027,77
1780607940476,-0.278,77
1780607940483,-0.378,77
1780607940491,-0.424,77
1780607940499,-0.475,77
1780607940507,-0.498,77
1780607940514,-0.512,77
1780607940522,-0.526,77
1780607940530,-0.524,77
1780607940537,-0.526,77
1780607940545,-0.526,77
1780607940553,-0.507,77
1780607940560,-0.491,77
1780607940568,-0.482,77
1780607940576,-0.438,77
1780607940583,-0.32,77
1780607940591,-0.076,77
1780607940599,0.157,77
1780607940607,0.048,77
1780607940614,-0.412,77
1780607940622,-0.695,77
1780607940630,-0.572,77
1780607940637,-0.436,77
1780607940645,-0.438,77
1780607940653,-0.419,77
1780607940660,-0.389,77
1780607940668,-0.387,77
1780607940700,-0.38,77
1780607940708,-0.375,77
1780607940716,-0.368,77
1780607940723,-0.343,77
1780607940731,-0.322,77
1780607940739,-0.315,77
1780607940747,-0.299,77
1780607940754,-0.289,77
1780607940762,-0.292,77
1780607940770,-0.273,77
1780607940777,-0.25,77
1780607940785,-0.238,77
1780607940793,-0.222,77
1780607940800,-0.208,77
1780607940808,-0.213,77
1780607940816,-0.208,77
1780607940823,-0.192,77
1780607940831,-0.185,77
1780607940839,-0.18,77
1780607940847,-0.18,77
1780607940854,-0.194,77
1780607940862,-0.211,77
1780607940870,-0.215,77
1780607940877,-0.22,77
1780607940885,-0.234,77
1780607940893,-0.241,77
1780607940900,-0.243,77
1780607940908,-0.248,77
1780607940916,-0.248,77
1780607940923,-0.243,77
1780607940931,-0.238,77
1780607940939,-0.231,77
1780607940947,-0.231,77
1780607940954,-0.238,77
1780607940962,-0.236,77
1780607940970,-0.222,77
1780607940977,-0.211,77
1780607940985,-0.204,77
1780607940993,-0.199,77
1780607941000,-0.192,77
1780607941008,-0.187,77
1780607941016,-0.183,77
1780607941023,-0.178,77
1780607941031,-0.173,77
1780607941039,-0.164,77
1780607941047,-0.166,77
1780607941054,-0.178,77
1780607941062,-0.187,77
1780607941070,-0.185,77
1780607941077,-0.178,77
1780607941085,-0.171,77
1780607941093,-0.171,77
1780607941100,-0.183,77
1780607941108,-0.187,77
1780607941116,-0.173,77
1780607941123,-0.164,77
1780607941131,-0.162,77
1780607941139,-0.157,77
1780607941147,-0.164,77
1780607941154,-0.173,77
1780607941162,-0.164,77
1780607941170,-0.153,77
1780607941177,-0.15,77
1780607941185,-0.146,77
1780607941193,-0.141,77
1780607941200,-0.139,77
1780607941208,-0.136,77
1780607941216,-0.132,77
1780607941223,-0.125,77
1780607941231,-0.104,77
1780607941239,-0.083,77
1780607941247,-0.088,77
1780607941254,-0.102,77
1780607941284,-0.097,77
1780607941292,-0.092,77
1780607941299,-0.099,77
1780607941307,-0.111,77
1780607941315,-0.132,77
1780607941322,-0.141,77
1780607941330,-0.129,77
1780607941338,-0.12,77
1780607941346,-0.125,77
1780607941353,-0.129,77
1780607941361,-0.132,77
1780607941369,-0.129,77
1780607941376,-0.076,77
1780607941384,0.095,77
1780607941392,0.361,77
1780607941399,0.489,77
1780607941407,0.218,77
1780607941415,-0.245,77
1780607941422,-0.371,77
1780607941430,-0.206,77
1780607941438,-0.143,77
1780607941446,-0.162,77
1780607941453,-0.141,77
1780607941461,-0.132,77
1780607941469,-0.141,77
1780607941476,-0.127,77
1780607941484,-0.111,77
1780607941492,-0.106,77
1780607941499,-0.102,77
1780607941507,-0.09,77
1780607941515,-0.083,77
1780607941522,-0.074,77
1780607941530,-0.062,77
1780607941538,-0.055,77
1780607941546,-0.051,77
1780607941553,-0.046,77
1780607941561,-0.051,77
1780607941569,-0.053,77
1780607941576,-0.039,77
1780607941584,-0.023,77
1780607941592,-0.025,77
1780607941599,-0.032,77
1780607941607,-0.041,77
1780607941615,-0.048,77
1780607941622,-0.046,77
1780607941630,-0.051,77
1780607941638,-0.064,77
1780607941646,-0.071,77
1780607941653,-0.09,77
1780607941661,-0.118,77
1780607941669,-0.129,77
1780607941676,-0.132,77
1780607941684,-0.139,77
1780607941692,-0.141,77
1780607941699,-0.136,77
1780607941707,-0.136,77
1780607941715,-0.143,77
1780607941722,-0.136,77
1780607941730,-0.12,77
1780607941738,-0.115,77
1780607941746,-0.113,77
1780607941753,-0.113,77
1780607941761,-0.115,77
1780607941769,-0.115,77
1780607941776,-0.106,77
1780607941784,-0.099,77
1780607941792,-0.095,77
1780607941799,-0.095,77
1780607941807,-0.102,77
1780607941815,-0.104,77
1780607941822,-0.099,77
1780607941830,-0.097,77
1780607941838,-0.095,77
1780607942016,-0.095,77
1780607942024,-0.104,77
1780607942032,-0.113,77
1780607942039,-0.106,77
1780607942047,-0.097,77
1780607942055,-0.095,77
1780607942063,-0.095,77
1780607942070,-0.102,77
1780607942078,-0.115,77
1780607942086,-0.115,77
1780607942093,-0.106,77
1780607942101,-0.102,77
1780607942109,-0.099,77
1780607942116,-0.095,77
1780607942124,-0.097,77
1780607942132,-0.102,77
1780607942139,-0.095,77
1780607942147,-0.085,77
1780607942155,-0.085,77
1780607942163,-0.09,77
1780607942170,-0.097,77
1780607942178,-0.092,77
1780607942186,-0.064,77
1780607942193,-0.053,77
1780607942201,-0.071,77
1780607942209,-0.078,77
1780607942216,-0.076,77
1780607942224,-0.095,77
1780607942232,-0.115,77
1780607942239,-0.12,77
1780607942247,-0.115,77
1780607942255,-0.109,77
1780607942263,-0.109,77
1780607942270,-0.115,77
1780607942278,-0.122,77
1780607942286,-0.118,77
1780607942293,-0.104,77
1780607942301,-0.06,77
1780607942309,0.071,77
1780607942316,0.306,77
1780607942324,0.459,77
1780607942332,0.262,77
1780607942339,-0.173,77
1780607942347,-0.359,77
1780607942355,-0.227,77
1780607942363,-0.141,77
1780607942370,-0.16,77
1780607942378,-0.15,77
1780607942386,-0.136,77
1780607942393,-0.136,77
1780607942401,-0.132,77
1780607942409,-0.127,77
1780607942416,-0.127,77
1780607942424,-0.12,77
1780607942432,-0.109,77
1780607942439,-0.104,77
1780607942447,-0.095,77
1780607942455,-0.092,77
1780607942463,-0.099,77
1780607942470,-0.102,77
1780607942478,-0.088,77
1780607942486,-0.074,77
1780607942493,-0.069,77
1780607942501,-0.067,77
1780607942509,-0.067,77
1780607942516,-0.069,77
1780607942524,-0.064,77
1780607942532,-0.055,77
1780607942539,-0.055,77
1780607942547,-0.062,77
1780607942555,-0.069,77
1780607942563,-0.083,77
1780607942570,-0.099,77
1780607942600,-0.111,78
1780607942608,-0.125,78
1780607942616,-0.136,78
1780607942623,-0.15,78
1780607942631,-0.176,78
1780607942639,-0.192,78
1780607942646,-0.187,78
1780607942654,-0.183,78
1780607942662,-0.185,78
1780607942669,-0.18,78
1780607942677,-0.171,78
1780607942685,-0.166,78
1780607942692,-0.16,78
1780607942700,-0.155,78
1780607942708,-0.155,78
1780607942716,-0.155,78
1780607942723,-0.16,78
1780607942731,-0.171,78
1780607942739,-0.171,78
1780607942746,-0.16,78
1780607942754,-0.157,78
1780607942762,-0.155,78
1780607942769,-0.15,78
1780607942777,-0.153,78
1780607942785,-0.16,78
1780607942792,-0.162,78
1780607942800,-0.169,78
1780607942808,-0.171,78
1780607942816,-0.164,78
1780607942823,-0.166,78
1780607942831,-0.178,78
1780607942839,-0.176,78
1780607942846,-0.171,78
1780607942854,-0.169,78
1780607942862,-0.164,78
1780607942869,-0.169,78
1780607942877,-0.18,78
1780607942885,-0.18,78
1780607942892,-0.176,78
1780607942900,-0.173,78
1780607942908,-0.169,78
1780607942916,-0.166,78
1780607942923,-0.166,78
1780607942931,-0.164,78
1780607942939,-0.16,78
1780607942946,-0.157,78
1780607942954,-0.155,78
1780607942962,-0.143,78
1780607942969,-0.125,78
1780607942977,-0.127,78
1780607942985,-0.143,78
1780607942992,-0.143,78
1780607943000,-0.132,78
1780607943008,-0.134,78
1780607943016,-0.157,78
1780607943023,-0.18,78
1780607943031,-0.178,78
1780607943039,-0.164,78
1780607943046,-0.162,78
1780607943054,-0.162,78
1780607943062,-0.157,78
1780607943069,-0.169,78
1780607943077,-0.169,78
1780607943085,-0.118,78
1780607943092,0.006,78
1780607943100,0.231,78
1780607943108,0.398,78
1780607943116,0.208,78
1780607943123,-0.248,78
1780607943131,-0.436,78
1780607943139,-0.292,78
1780607943146,-0.201,78
1780607943154,-0.208,78
1780607943477,-0.192,78
1780607943485,-0.187,78
1780607943493,-0.19,78
1780607943500,-0.173,78
1780607943508,-0.162,78
1780607943516,-0.16,78
1780607943523,-0.16,78
1780607943531,-0.166,78
1780607943539,-0.166,78
1780607943547,-0.15,78
1780607943554,-0.139,78
1780607943562,-0.132,78
1780607943570,-0.122,78
1780607943577,-0.125,78
1780607943585,-0.129,78
1780607943593,-0.118,78
1780607943600,-0.102,78
1780607943608,-0.097,78
1780607943616,-0.102,78
1780607943623,-0.115,78
1780607943631,-0.127,78
1780607943639,-0.122,78
1780607943647,-0.111,78
1780607943654,-0.113,78
1780607943662,-0.122,78
1780607943670,-0.136,78
1780607943677,-0.16,78
1780607943685,-0.176,78
1780607943693,-0.183,78
1780607943700,-0.194,78
1780607943708,-0.199,78
1780607943716,-0.199,78
1780607943723,-0.211,78
1780607943731,-0.22,78
1780607943739,-0.208,78
1780607943747,-0.192,78
1780607943754,-0.19,78
1780607943762,-0.19,78
1780607943770,-0.187,78
1780607943777,-0.187,78
1780607943785,-0.18,78
1780607943793,-0.171,78
1780607943800,-0.169,78
1780607943808,-0.166,78
1780607943816,-0.16,78
1780607943823,-0.15,78
1780607943831,-0.148,78
1780607943839,-0.143,78
1780607943847,-0.139,78
1780607943854,-0.139,78
1780607943862,-0.141,78
1780607943870,-0.146,78
1780607943877,-0.153,78
1780607943885,-0.148,78
1780607943893,-0.141,78
1780607943900,-0.141,78
1780607943908,-0.139,78
1780607943916,-0.139,78
1780607943923,-0.153,78
1780607943931,-0.155,78
1780607943939,-0.146,78
1780607943947,-0.15,78
1780607943954,-0.148,78
1780607943962,-0.141,78
1780607943970,-0.15,78
1780607943977,-0.157,78
1780607943985,-0.146,78
1780607943993,-0.139,78
1780607944000,-0.136,78
1780607944008,-0.132,78
1780607944016,-0.139,78
1780607944023,-0.148,78
1780607944031,-0.139,78
1780607943965,-0.115,78
1780607943973,-0.097,78
1780607943981,-0.099,78
1780607943989,-0.115,78
1780607943996,-0.118,78
1780607944004,-0.118,78
1780607944012,-0.125,78
1780607944019,-0.136,78
1780607944027,-0.139,78
1780607944035,-0.139,78
1780607944042,-0.146,78
1780607944050,-0.16,78
1780607944058,-0.162,78
1780607944065,-0.157,78
1780607944073,-0.15,78
1780607944081,-0.122,78
1780607944089,-0.044,78
1780607944096,0.153,78
1780607944104,0.403,78
1780607944112,0.391,78
1780607944119,-0.025,78
1780607944127,-0.398,78
1780607944135,-0.352,78
1780607944142,-0.197,78
1780607944150,-0.19,78
1780607944158,-0.18,78
1780607944165,-0.146,78
1780607944173,-0.146,78
1780607944181,-0.15,78
1780607944189,-0.15,78
1780607944196,-0.15,78
1780607944204,-0.134,78
1780607944212,-0.115,78
1780607944219,-0.113,78
1780607944227,-0.104,78
1780607944235,-0.092,78
1780607944242,-0.088,78
1780607944250,-0.074,78
1780607944258,-0.062,78
1780607944265,-0.057,78
1780607944273,-0.046,78
1780607944281,-0.041,78
1780607944289,-0.046,78
1780607944296,-0.044,78
1780607944304,-0.03,78
1780607944312,-0.027,78
1780607944319,-0.027,78
1780607944327,-0.03,78
1780607944335,-0.046,78
1780607944342,-0.064,78
1780607944350,-0.069,78
1780607944358,-0.071,78
1780607944365,-0.092,78
1780607944373,-0.113,78
1780607944381,-0.125,78
1780607944389,-0.129,78
1780607944396,-0.132,78
1780607944404,-0.134,78
1780607944412,-0.136,78
1780607944419,-0.129,78
1780607944427,-0.127,78
1780607944435,-0.139,78
1780607944442,-0.139,78
1780607944450,-0.129,78
1780607944458,-0.122,78
1780607944465,-0.118,78
1780607944473,-0.111,78
1780607944481,-0.104,78
1780607944489,-0.099,78
1780607944496,-0.097,78
1780607944504,-0.095,78
1780607944512,-0.092,78
1780607944519,-0.095,78
1780607944549,-0.102,78
1780607944557,-0.106,78
1780607944565,-0.102,78
1780607944572,-0.097,78
1780607944580,-0.099,78
1780607944588,-0.113,78
1780607944595,-0.125,78
1780607944603,-0.132,78
1780607944611,-0.132,78
1780607944618,-0.122,78
1780607944626,-0.12,78
1780607944634,-0.125,78
1780607944641,-0.125,78
1780607944649,-0.129,78
1780607944657,-0.132,78
1780607944665,-0.12,78
1780607944672,-0.111,78
1780607944680,-0.115,78
1780607944688,-0.115,78
1780607944695,-0.115,78
1780607944703,-0.127,78
1780607944711,-0.125,78
1780607944718,-0.099,78
1780607944726,-0.069,78
1780607944734,-0.064,78
1780607944741,-0.092,78
1780607944749,-0.109,78
1780607944757,-0.102,78
1780607944765,-0.104,78
1780607944772,-0.12,78
1780607944780,-0.125,78
1780607944788,-0.125,78
1780607944795,-0.132,78
1780607944803,-0.132,78
1780607944811,-0.125,78
1780607944818,-0.129,78
1780607944826,-0.127,78
1780607944834,-0.104,78
1780607944841,-0.041,78
1780607944849,0.143,78
1780607944857,0.438,78
1780607944865,0.54,78
1780607944872,0.187,78
1780607944880,-0.294,78
1780607944888,-0.378,78
1780607944895,-0.204,78
1780607944903,-0.164,78
1780607944911,-0.176,78
1780607944918,-0.146,78
1780607944926,-0.143,78
1780607944934,-0.153,78
1780607944941,-0.146,78
1780607944949,-0.146,78
1780607944957,-0.143,78
1780607944965,-0.132,78
1780607944972,-0.122,78
1780607944980,-0.115,78
1780607944988,-0.118,78
1780607944995,-0.122,78
1780607945003,-0.113,78
1780607945011,-0.097,78
1780607945018,-0.085,78
1780607945026,-0.076,78
1780607945034,-0.071,78
1780607945041,-0.074,78
1780607945049,-0.071,78
1780607945057,-0.06,78
1780607945065,-0.055,78
1780607945072,-0.055,78
1780607945080,-0.057,78
1780607945088,-0.067,78
1780607945095,-0.085,78
1780607945103,-0.099,78
1780607945233,-0.106,78
1780607945240,-0.122,78
1780607945248,-0.143,78
1780607945256,-0.166,78
1780607945264,-0.185,78
1780607945271,-0.187,78
1780607945279,-0.178,78
1780607945287,-0.178,78
1780607945294,-0.176,78
1780607945302,-0.176,78
1780607945310,-0.187,78
1780607945317,-0.183,78
1780607945325,-0.166,78
1780607945333,-0.162,78
1780607945340,-0.155,78
1780607945348,-0.15,78
1780607945356,-0.162,78
1780607945364,-0.166,78
1780607945371,-0.153,78
1780607945379,-0.141,78
1780607945387,-0.143,78
1780607945394,-0.141,78
1780607945402,-0.148,78
1780607945410,-0.157,78
1780607945417,-0.153,78
1780607945425,-0.141,78
1780607945433,-0.141,78
1780607945440,-0.143,78
1780607945448,-0.146,78
1780607945456,-0.16,78
1780607945464,-0.162,78
1780607945471,-0.15,78
1780607945479,-0.143,78
1780607945487,-0.15,78
1780607945494,-0.157,78
1780607945502,-0.162,78
1780607945510,-0.162,78
1780607945517,-0.155,78
1780607945525,-0.148,78
1780607945533,-0.146,78
1780607945540,-0.143,78
1780607945548,-0.153,78
1780607945556,-0.16,78
1780607945564,-0.148,78
1780607945571,-0.136,78
1780607945579,-0.127,78
1780607945587,-0.102,78
1780607945594,-0.099,78
1780607945602,-0.132,78
1780607945610,-0.141,78
1780607945617,-0.127,78
1780607945625,-0.134,78
1780607945633,-0.148,78
1780607945640,-0.155,78
1780607945648,-0.164,78
1780607945656,-0.169,78
1780607945664,-0.16,78
1780607945671,-0.155,78
1780607945679,-0.155,78
1780607945687,-0.15,78
1780607945694,-0.134,78
1780607945702,-0.085,78
1780607945710,0.071,78
1780607945717,0.327,78
1780607945725,0.433,78
1780607945733,0.148,78
1780607945740,-0.299,78
1780607945748,-0.41,78
1780607945756,-0.245,78
1780607945764,-0.176,78
1780607945771,-0.192,78
1780607945779,-0.176,78
1780607945787,-0.171,78
1780607945768,-0.19,78
1780607945775,-0.187,78
1780607945783,-0.171,78
1780607945791,-0.164,78
1780607945799,-0.157,78
1780607945806,-0.146,78
1780607945814,-0.141,78
1780607945822,-0.136,78
1780607945829,-0.127,78
1780607945837,-0.118,78
1780607945845,-0.109,78
1780607945852,-0.097,78
1780607945860,-0.097,78
1780607945868,-0.099,78
1780607945875,-0.095,78
1780607945883,-0.081,78
1780607945891,-0.071,78
1780607945899,-0.067,78
1780607945906,-0.064,78
1780607945914,-0.069,78
1780607945922,-0.074,78
1780607945929,-0.078,78
1780607945937,-0.088,78
1780607945945,-0.097,78
1780607945952,-0.115,78
1780607945960,-0.146,78
1780607945968,-0.169,78
1780607945975,-0.173,78
1780607945983,-0.171,78
1780607945991,-0.173,78
1780607945999,-0.171,78
1780607946006,-0.173,78
1780607946014,-0.187,78
1780607946022,-0.185,78
1780607946029,-0.171,78
1780607946037,-0.162,78
1780607946045,-0.16,78
1780607946052,-0.157,78
1780607946060,-0.164,78
1780607946068,-0.171,78
1780607946075,-0.16,78
1780607946083,-0.148,78
1780607946091,-0.146,78
1780607946099,-0.141,78
1780607946106,-0.146,78
1780607946114,-0.155,78
1780607946122,-0.15,78
1780607946129,-0.139,78
1780607946137,-0.139,78
1780607946145,-0.134,78
1780607946152,-0.129,78
1780607946160,-0.132,78
1780607946168,-0.134,78
1780607946175,-0.129,78
1780607946183,-0.125,78
1780607946191,-0.129,78
1780607946199,-0.148,78
1780607946206,-0.16,78
1780607946214,-0.157,78
1780607946222,-0.148,78
1780607946229,-0.143,78
1780607946237,-0.141,78
1780607946245,-0.139,78
1780607946252,-0.148,78
1780607946260,-0.157,78
1780607946268,-0.148,78
1780607946275,-0.136,78
1780607946283,-0.136,78
1780607946291,-0.134,78
1780607946299,-0.134,78
1780607946306,-0.127,78
1780607946314,-0.106,78
1780607946322,-0.102,78
1780607946257,-0.118,78
1780607946265,-0.118,78
1780607946273,-0.118,78
1780607946280,-0.143,78
1780607946288,-0.162,78
1780607946296,-0.155,78
1780607946303,-0.146,78
1780607946311,-0.146,78
1780607946319,-0.143,78
1780607946326,-0.15,78
1780607946334,-0.16,78
1780607946342,-0.148,78
1780607946349,-0.113,78
1780607946357,-0.037,78
1780607946365,0.143,78
1780607946373,0.378,78
1780607946380,0.368,78
1780607946388,-0.016,78
1780607946396,-0.357,78
1780607946403,-0.31,78
1780607946411,-0.164,78
1780607946419,-0.155,78
1780607946426,-0.164,78
1780607946434,-0.155,78
1780607946442,-0.155,78
1780607946449,-0.15,78
1780607946457,-0.143,78
1780607946465,-0.139,78
1780607946473,-0.141,78
1780607946480,-0.146,78
1780607946488,-0.136,78
1780607946496,-0.122,78
1780607946503,-0.113,78
1780607946511,-0.109,78
1780607946519,-0.106,78
1780607946526,-0.111,78
1780607946534,-0.106,78
1780607946542,-0.09,78
1780607946549,-0.081,78
1780607946557,-0.076,78
1780607946565,-0.069,78
1780607946573,-0.074,78
1780607946580,-0.083,78
1780607946588,-0.078,78
1780607946596,-0.074,78
1780607946603,-0.078,78
1780607946611,-0.081,78
1780607946619,-0.09,78
1780607946626,-0.111,78
1780607946634,-0.129,78
1780607946642,-0.139,78
1780607946649,-0.146,78
1780607946657,-0.155,78
1780607946665,-0.164,78
1780607946673,-0.178,78
1780607946680,-0.18,78
1780607946688,-0.173,78
1780607946696,-0.171,78
1780607946703,-0.164,78
1780607946711,-0.16,78
1780607946719,-0.169,78
1780607946726,-0.171,78
1780607946734,-0.162,78
1780607946742,-0.155,78
1780607946749,-0.153,78
1780607946757,-0.148,78
1780607946765,-0.15,78
1780607946773,-0.157,78
1780607946780,-0.153,78
1780607946788,-0.146,78
1780607946796,-0.141,78
1780607946803,-0.136,78
1780607946811,-0.136,78
1780607946841,-0.143,78
1780607946848,-0.143,78
1780607946856,-0.136,78
1780607946864,-0.134,78
1780607946871,-0.129,78
1780607946879,-0.125,78
1780607946887,-0.129,78
1780607946894,-0.136,78
1780607946902,-0.134,78
1780607946910,-0.125,78
1780607946918,-0.122,78
1780607946925,-0.12,78
1780607946933,-0.127,78
1780607946941,-0.141,78
1780607946948,-0.139,78
1780607946956,-0.125,78
1780607946964,-0.122,78
1780607946971,-0.118,78
1780607946979,-0.12,78
1780607946987,-0.132,78
1780607946994,-0.134,78
1780607947002,-0.125,78
1780607947010,-0.12,78
1780607947018,-0.118,78
1780607947025,-0.113,78
1780607947033,-0.12,78
1780607947041,-0.118,78
1780607947048,-0.09,78
1780607947056,-0.088,78
1780607947064,-0.106,78
1780607947071,-0.104,78
1780607947079,-0.097,78
1780607947087,-0.113,78
1780607947094,-0.125,78
1780607947102,-0.122,78
1780607947110,-0.118,78
1780607947118,-0.122,78
1780607947125,-0.12,78
1780607947133,-0.118,78
1780607947141,-0.125,78
1780607947148,-0.127,78
1780607947156,-0.111,78
1780607947164,-0.051,78
1780607947171,0.115,78
1780607947179,0.373,78
1780607947187,0.452,78
1780607947194,0.125,78
1780607947202,-0.299,78
1780607947210,-0.34,78
1780607947218,-0.173,78
1780607947225,-0.15,78
1780607947233,-0.176,78
1780607947241,-0.153,78
1780607947248,-0.146,78
1780607947256,-0.153,78
1780607947264,-0.143,78
1780607947271,-0.136,78
1780607947279,-0.134,78
1780607947287,-0.127,78
1780607947294,-0.12,78
1780607947302,-0.113,78
1780607947310,-0.104,78
1780607947318,-0.097,78
1780607947325,-0.097,78
1780607947333,-0.092,78
1780607947341,-0.083,78
1780607947348,-0.076,78
1780607947356,-0.067,78
1780607947364,-0.057,78
1780607947371,-0.051,78
1780607947379,-0.051,78
1780607947387,-0.051,78
1780607947394,-0.048,78
1780607947573,-0.051,78
1780607947581,-0.055,78
1780607947589,-0.062,78
1780607947596,-0.071,78
1780607947604,-0.081,78
1780607947612,-0.092,78
1780607947619,-0.109,78
1780607947627,-0.122,78
1780607947635,-0.136,78
1780607947642,-0.157,78
1780607947650,-0.169,78
1780607947658,-0.164,78
1780607947666,-0.164,78
1780607947673,-0.162,78
1780607947681,-0.155,78
1780607947689,-0.16,78
1780607947696,-0.169,78
1780607947704,-0.164,78
1780607947712,-0.155,78
1780607947719,-0.153,78
1780607947727,-0.146,78
1780607947735,-0.141,78
1780607947742,-0.15,78
1780607947750,-0.15,78
1780607947758,-0.141,78
1780607947766,-0.136,78
1780607947773,-0.139,78
1780607947781,-0.136,78
1780607947789,-0.141,78
1780607947796,-0.155,78
1780607947804,-0.162,78
1780607947812,-0.153,78
1780607947819,-0.148,78
1780607947827,-0.155,78
1780607947835,-0.162,78
1780607947842,-0.157,78
1780607947850,-0.153,78
1780607947858,-0.15,78
1780607947866,-0.141,78
1780607947873,-0.136,78
1780607947881,-0.141,78
1780607947889,-0.15,78
1780607947896,-0.153,78
1780607947904,-0.146,78
1780607947912,-0.136,78
1780607947919,-0.136,78
1780607947927,-0.136,78
1780607947935,-0.143,78
1780607947942,-0.153,78
1780607947950,-0.146,78
1780607947958,-0.132,78
1780607947966,-0.127,78
1780607947973,-0.132,78
1780607947981,-0.122,78
1780607947989,-0.111,78
1780607947996,-0.113,78
1780607948004,-0.12,78
1780607948012,-0.115,78
1780607948019,-0.113,78
1780607948027,-0.134,78
1780607948035,-0.162,78
1780607948042,-0.162,78
1780607948050,-0.15,78
1780607948058,-0.146,78
1780607948066,-0.146,78
1780607948073,-0.146,78
1780607948081,-0.155,78
1780607948089,-0.153,78
1780607948096,-0.111,78
1780607948104,0.013,78
1780607948112,0.273,78
1780607948119,0.517,78
1780607948127,0.385,78
1780607948353,-0.122,79
1780607948361,-0.429,79
1780607948368,-0.296,79
1780607948376,-0.162,79
1780607948384,-0.187,79
1780607948392,-0.183,79
1780607948399,-0.169,79
1780607948407,-0.18,79
1780607948415,-0.166,79
1780607948422,-0.143,79
1780607948430,-0.139,79
1780607948438,-0.141,79
1780607948445,-0.141,79
1780607948453,-0.139,79
1780607948461,-0.125,79
1780607948468,-0.111,79
1780607948476,-0.104,79
1780607948484,-0.097,79
1780607948492,-0.092,79
1780607948499,-0.099,79
1780607948507,-0.092,79
1780607948515,-0.078,79
1780607948522,-0.069,79
1780607948530,-0.06,79
1780607948538,-0.06,79
1780607948545,-0.071,79
1780607948553,-0.083,79
1780607948561,-0.088,79
1780607948568,-0.092,79
1780607948576,-0.099,79
1780607948584,-0.113,79
1780607948592,-0.134,79
1780607948599,-0.157,79
1780607948607,-0.164,79
1780607948615,-0.166,79
1780607948622,-0.176,79
1780607948630,-0.18,79
1780607948638,-0.185,79
1780607948645,-0.192,79
1780607948653,-0.185,79
1780607948661,-0.173,79
1780607948668,-0.169,79
1780607948676,-0.162,79
1780607948684,-0.157,79
1780607948692,-0.162,79
1780607948699,-0.162,79
1780607948707,-0.15,79
1780607948715,-0.143,79
1780607948722,-0.141,79
1780607948730,-0.139,79
1780607948738,-0.143,79
1780607948745,-0.146,79
1780607948753,-0.141,79
1780607948761,-0.143,79
1780607948768,-0.141,79
1780607948776,-0.132,79
1780607948784,-0.134,79
1780607948792,-0.136,79
1780607948799,-0.132,79
1780607948807,-0.129,79
1780607948815,-0.125,79
1780607948822,-0.115,79
1780607948830,-0.12,79
1780607948838,-0.134,79
1780607948845,-0.134,79
1780607948853,-0.122,79
1780607948861,-0.12,79
1780607948868,-0.118,79
1780607948876,-0.118,79
1780607948884,-0.125,79
1780607948892,-0.132,79
1780607948899,-0.127,79
1780607948907,-0.122,79
1780607948888,-0.118,79
1780607948895,-0.115,79
1780607948903,-0.127,79
1780607948911,-0.139,79
1780607948919,-0.134,79
1780607948926,-0.118,79
1780607948934,-0.097,79
1780607948942,-0.076,79
1780607948949,-0.083,79
1780607948957,-0.106,79
1780607948965,-0.109,79
1780607948972,-0.106,79
1780607948980,-0.122,79
1780607948988,-0.134,79
1780607948995,-0.125,79
1780607949003,-0.122,79
1780607949011,-0.122,79
1780607949019,-0.12,79
1780607949026,-0.122,79
1780607949034,-0.129,79
1780607949042,-0.115,79
1780607949049,-0.074,79
1780607949057,0.06,79
1780607949065,0.336,79
1780607949072,0.524,79
1780607949080,0.306,79
1780607949088,-0.18,79
1780607949095,-0.387,79
1780607949103,-0.238,79
1780607949111,-0.141,79
1780607949119,-0.16,79
1780607949126,-0.146,79
1780607949134,-0.127,79
1780607949142,-0.136,79
1780607949149,-0.141,79
1780607949157,-0.134,79
1780607949165,-0.125,79
1780607949172,-0.113,79
1780607949180,-0.104,79
1780607949188,-0.097,79
1780607949195,-0.099,79
1780607949203,-0.104,79
1780607949211,-0.097,79
1780607949219,-0.085,79
1780607949226,-0.081,79
1780607949234,-0.076,79
1780607949242,-0.062,79
1780607949249,-0.051,79
1780607949257,-0.041,79
1780607949265,-0.034,79
1780607949272,-0.027,79
1780607949280,-0.025,79
1780607949288,-0.032,79
1780607949295,-0.046,79
1780607949303,-0.06,79
1780607949311,-0.062,79
1780607949319,-0.067,79
1780607949326,-0.083,79
1780607949334,-0.099,79
1780607949342,-0.111,79
1780607949349,-0.122,79
1780607949357,-0.125,79
1780607949365,-0.125,79
1780607949372,-0.127,79
1780607949380,-0.129,79
1780607949388,-0.132,79
1780607949395,-0.141,79
1780607949403,-0.141,79
1780607949411,-0.129,79
1780607949419,-0.12,79
1780607949426,-0.12,79
1780607949434,-0.118,79
1780607949442,-0.122,79
1780607949472,-0.127,79
1780607949480,-0.12,79
1780607949488,-0.118,79
1780607949495,-0.12,79
1780607949503,-0.113,79
1780607949511,-0.113,79
1780607949518,-0.122,79
1780607949526,-0.118,79
1780607949534,-0.104,79
1780607949541,-0.102,79
1780607949549,-0.102,79
1780607949557,-0.106,79
1780607949565,-0.115,79
1780607949572,-0.111,79
1780607949580,-0.097,79
1780607949588,-0.095,79
1780607949595,-0.095,79
1780607949603,-0.088,79
1780607949611,-0.083,79
1780607949618,-0.081,79
1780607949626,-0.076,79
1780607949634,-0.074,79
1780607949641,-0.071,79
1780607949649,-0.06,79
1780607949657,-0.055,79
1780607949665,-0.062,79
1780607949672,-0.062,79
1780607949680,-0.06,79
1780607949688,-0.064,79
1780607949695,-0.06,79
1780607949703,-0.055,79
1780607949711,-0.067,79
1780607949718,-0.069,79
1780607949726,-0.055,79
1780607949734,-0.048,79
1780607949741,-0.039,79
1780607949749,-0.018,79
1780607949757,-0.009,79
1780607949765,-0.02,79
1780607949772,-0.006,79
1780607949780,0.018,79
1780607949788,0.016,79
1780607949795,-0.009,79
1780607949803,-0.025,79
1780607949811,-0.027,79
1780607949818,-0.025,79
1780607949826,-0.016,79
1780607949834,-0.006,79
1780607949841,-0.006,79
1780607949849,-0.013,79
1780607949857,-0.002,79
1780607949865,0.069,79
1780607949872,0.25,79
1780607949880,0.507,79
1780607949888,0.589,79
1780607949895,0.273,79
1780607949903,-0.143,79
1780607949911,-0.204,79
1780607949918,-0.046,79
1780607949926,-0.006,79
1780607949934,-0.02,79
1780607949941,-0.004,79
1780607949949,-0.011,79
1780607949957,-0.025,79
1780607949965,-0.013,79
1780607949972,0.004,79
1780607949980,0.002,79
1780607949988,-0.004,79
1780607949995,-0.002,79
1780607950003,-0.002,79
1780607950011,-0.004,79
1780607950018,0.009,79
1780607950026,0.023,79
1780607950009,0.03,79
1780607950017,0.034,79
1780607950024,0.032,79
1780607950032,0.023,79
1780607950040,0.025,79
1780607950047,0.034,79
1780607950055,0.034,79
1780607950063,0.027,79
1780607950071,0.013,79
1780607950078,-0.011,79
1780607950086,-0.032,79
1780607950094,-0.046,79
1780607950101,-0.067,79
1780607950109,-0.095,79
1780607950117,-0.122,79
1780607950124,-0.157,79
1780607950132,-0.176,79
1780607950140,-0.18,79
1780607950147,-0.19,79
1780607950155,-0.199,79
1780607950163,-0.201,79
1780607950171,-0.211,79
1780607950178,-0.218,79
1780607950186,-0.211,79
1780607950194,-0.204,79
1780607950201,-0.206,79
1780607950209,-0.206,79
1780607950217,-0.204,79
1780607950224,-0.197,79
1780607950232,-0.187,79
1780607950240,-0.185,79
1780607950247,-0.185,79
1780607950255,-0.183,79
1780607950263,-0.185,79
1780607950271,-0.197,79
1780607950278,-0.201,79
1780607950286,-0.187,79
1780607950294,-0.183,79
1780607950301,-0.183,79
1780607950309,-0.178,79
1780607950317,-0.178,79
1780607950324,-0.18,79
1780607950332,-0.173,79
1780607950340,-0.166,79
1780607950347,-0.166,79
1780607950355,-0.166,79
1780607950363,-0.171,79
1780607950371,-0.178,79
1780607950378,-0.171,79
1780607950386,-0.164,79
1780607950394,-0.169,79
1780607950401,-0.166,79
1780607950409,-0.164,79
1780607950417,-0.176,79
1780607950424,-0.176,79
1780607950432,-0.164,79
1780607950440,-0.162,79
1780607950447,-0.166,79
1780607950455,-0.169,79
1780607950463,-0.173,79
1780607950471,-0.176,79
1780607950478,-0.171,79
1780607950486,-0.164,79
1780607950494,-0.157,79
1780607950501,-0.153,79
1780607950509,-0.157,79
1780607950517,-0.166,79
1780607950524,-0.164,79
1780607950532,-0.16,79
1780607950540,-0.166,79
1780607950547,-0.15,79
1780607950555,-0.115,79
1780607950563,-0.118,79
1780607950789,-0.143,79
1780607950797,-0.143,79
1780607950804,-0.132,79
1780607950812,-0.139,79
1780607950820,-0.157,79
1780607950827,-0.173,79
1780607950835,-0.178,79
1780607950843,-0.171,79
1780607950851,-0.164,79
1780607950858,-0.162,79
1780607950866,-0.162,79
1780607950874,-0.166,79
1780607950881,-0.16,79
1780607950889,-0.095,79
1780607950897,0.081,79
1780607950904,0.329,79
1780607950912,0.398,79
1780607950920,0.074,79
1780607950927,-0.338,79
1780607950935,-0.38,79
1780607950943,-0.213,79
1780607950951,-0.176,79
1780607950958,-0.185,79
1780607950966,-0.166,79
1780607950974,-0.173,79
1780607950981,-0.185,79
1780607950989,-0.166,79
1780607950997,-0.15,79
1780607951004,-0.148,79
1780607951012,-0.141,79
1780607951020,-0.141,79
1780607951027,-0.15,79
1780607951035,-0.141,79
1780607951043,-0.122,79
1780607951051,-0.115,79
1780607951058,-0.106,79
1780607951066,-0.102,79
1780607951074,-0.106,79
1780607951081,-0.102,79
1780607951089,-0.088,79
1780607951097,-0.078,79
1780607951104,-0.071,79
1780607951112,-0.067,79
1780607951120,-0.071,79
1780607951127,-0.074,79
1780607951135,-0.074,79
1780607951143,-0.078,79
1780607951151,-0.088,79
1780607951158,-0.104,79
1780607951166,-0.132,79
1780607951174,-0.157,79
1780607951181,-0.164,79
1780607951189,-0.166,79
1780607951197,-0.176,79
1780607951204,-0.18,79
1780607951212,-0.187,79
1780607951220,-0.197,79
1780607951227,-0.194,79
1780607951235,-0.18,79
1780607951243,-0.176,79
1780607951251,-0.173,79
1780607951258,-0.178,79
1780607951266,-0.194,79
1780607951274,-0.194,79
1780607951281,-0.178,79
1780607951289,-0.169,79
1780607951297,-0.169,79
1780607951304,-0.166,79
1780607951312,-0.169,79
1780607951320,-0.176,79
1780607951327,-0.166,79
1780607951335,-0.153,79
1780607951343,-0.153,79
1780607951278,-0.15,79
1780607951286,-0.141,79
1780607951293,-0.139,79
1780607951301,-0.141,79
1780607951309,-0.139,79
1780607951316,-0.134,79
1780607951324,-0.139,79
1780607951332,-0.146,79
1780607951339,-0.155,79
1780607951347,-0.155,79
1780607951355,-0.141,79
1780607951362,-0.132,79
1780607951370,-0.129,79
1780607951378,-0.118,79
1780607951386,-0.095,79
1780607951393,-0.053,79
1780607951401,-0.009,79
1780607951409,0.011,79
1780607951416,-0.002,79
1780607951424,-0.016,79
1780607951432,-0.016,79
1780607951439,-0.025,79
1780607951447,-0.037,79
1780607951455,-0.025,79
1780607951462,-0.013,79
1780607951470,0.0,79
1780607951478,0.039,79
1780607951486,0.057,79
1780607951493,0.032,79
1780607951501,0.039,79
1780607951509,0.078,79
1780607951516,0.115,79
1780607951524,0.118,79
1780607951532,0.053,79
1780607951539,0.03,79
1780607951547,0.088,79
1780607951555,0.12,79
1780607951562,0.115,79
1780607951570,0.139,79
1780607951578,0.169,79
1780607951586,0.178,79
1780607951593,0.197,79
1780607951601,0.243,79
1780607951609,0.285,79
1780607951616,0.327,79
1780607951624,0.405,79
1780607951632,0.48,79
1780607951639,0.498,79
1780607951647,0.521,79
1780607951655,0.584,79
1780607951662,0.688,79
1780607951670,0.902,79
1780607951678,1.152,79
1780607951686,1.078,79
1780607951693,0.582,79
1780607951701,0.213,79
1780607951709,0.292,79
1780607951716,0.412,79
1780607951724,0.364,79
1780607951732,0.345,79
1780607951739,0.359,79
1780607951747,0.336,79
1780607951755,0.32,79
1780607951762,0.313,79
1780607951770,0.287,79
1780607951778,0.259,79
1780607951786,0.255,79
1780607951793,0.259,79
1780607951801,0.264,79
1780607951809,0.271,79
1780607951816,0.278,79
1780607951824,0.273,79
1780607951832,0.255,79
1780607951813,0.241,79
1780607951820,0.236,79
1780607951828,0.241,79
1780607951836,0.248,79
1780607951843,0.252,79
1780607951851,0.245,79
1780607951859,0.229,79
1780607951866,0.213,79
1780607951874,0.19,79
1780607951882,0.162,79
1780607951890,0.153,79
1780607951897,0.141,79
1780607951905,0.113,79
1780607951913,0.085,79
1780607951920,0.062,79
1780607951928,0.041,79
1780607951936,0.023,79
1780607951943,0.002,79
1780607951951,-0.03,79
1780607951959,-0.057,79
1780607951966,-0.069,79
1780607951974,-0.074,79
1780607951982,-0.074,79
1780607951990,-0.081,79
1780607951997,-0.085,79
1780607952005,-0.076,79
1780607952013,-0.062,79
1780607952020,-0.06,79
1780607952028,-0.051,79
1780607952036,-0.041,79
1780607952043,-0.041,79
1780607952051,-0.039,79
1780607952059,-0.032,79
1780607952066,-0.03,79
1780607952074,-0.013,79
1780607952082,0.013,79
1780607952090,0.023,79
1780607952097,0.006,79
1780607952105,0.0,79
1780607952113,0.013,79
1780607952120,0.013,79
1780607952128,0.002,79
1780607952136,-0.006,79
1780607952143,-0.03,79
1780607952151,-0.069,79
1780607952159,-0.09,79
1780607952166,-0.09,79
1780607952174,-0.097,79
1780607952182,-0.102,79
1780607952190,-0.109,79
1780607952197,-0.125,79
1780607952205,-0.12,79
1780607952213,-0.099,79
1780607952220,-0.097,79
1780607952228,-0.099,79
1780607952236,-0.092,79
1780607952243,-0.085,79
1780607952251,-0.074,79
1780607952259,-0.069,79
1780607952266,-0.074,79
1780607952274,-0.074,79
1780607952282,-0.069,79
1780607952290,-0.064,79
1780607952297,-0.055,79
1780607952305,-0.032,79
1780607952313,-0.011,79
1780607952320,-0.02,79
1780607952328,-0.034,79
1780607952336,-0.037,79
1780607952343,-0.046,79
1780607952351,-0.057,79
1780607952359,-0.064,79
1780607952366,-0.064,79
1780607952544,-0.053,79
1780607952551,-0.048,79
1780607952559,-0.055,79
1780607952567,-0.053,79
1780607952575,-0.048,79
1780607952582,-0.048,79
1780607952590,-0.004,79
1780607952598,0.16,79
1780607952605,0.442,79
1780607952613,0.621,79
1780607952621,0.378,79
1780607952628,-0.143,79
1780607952636,-0.345,79
1780607952644,-0.166,79
1780607952651,-0.088,79
1780607952659,-0.136,79
1780607952667,-0.113,79
1780607952675,-0.088,79
1780607952682,-0.099,79
1780607952690,-0.088,79
1780607952698,-0.067,79
1780607952705,-0.067,79
1780607952713,-0.062,79
1780607952721,-0.053,79
1780607952728,-0.041,79
1780607952736,-0.037,79
1780607952744,-0.034,79
1780607952751,-0.032,79
1780607952759,-0.027,79
1780607952767,-0.011,79
1780607952775,0.002,79
1780607952782,0.011,79
1780607952790,0.02,79
1780607952798,0.018,79
1780607952805,0.009,79
1780607952813,0.013,79
1780607952821,0.02,79
1780607952828,0.013,79
1780607952836,0.004,79
1780607952844,-0.011,79
1780607952851,-0.039,79
1780607952859,-0.064,79
1780607952867,-0.078,79
1780607952875,-0.095,79
1780607952882,-0.115,79
1780607952890,-0.122,79
1780607952898,-0.125,79
1780607952905,-0.129,79
1780607952913,-0.134,79
1780607952921,-0.134,79
1780607952928,-0.127,79
1780607952936,-0.125,79
1780607952944,-0.136,79
1780607952951,-0.146,79
1780607952959,-0.136,79
1780607952967,-0.125,79
1780607952975,-0.125,79
1780607952982,-0.127,79
1780607952990,-0.132,79
1780607952998,-0.136,79
1780607953005,-0.132,79
1780607953013,-0.12,79
1780607953021,-0.118,79
1780607953028,-0.12,79
1780607953036,-0.125,79
1780607953044,-0.136,79
1780607953051,-0.141,79
1780607953059,-0.132,79
1780607953067,-0.122,79
1780607953075,-0.122,79
1780607953082,-0.132,79
1780607953090,-0.15,79
1780607953098,-0.162,79
1780607953372,-0.153,78
1780607953380,-0.139,78
1780607953388,-0.136,78
1780607953396,-0.134,78
1780607953403,-0.136,78
1780607953411,-0.139,78
1780607953419,-0.127,78
1780607953426,-0.118,78
1780607953434,-0.125,78
1780607953442,-0.129,78
1780607953449,-0.134,78
1780607953457,-0.155,78
1780607953465,-0.169,78
1780607953472,-0.164,78
1780607953480,-0.164,78
1780607953488,-0.169,78
1780607953496,-0.173,78
1780607953503,-0.178,78
1780607953511,-0.16,78
1780607953519,-0.125,78
1780607953526,-0.122,78
1780607953534,-0.139,78
1780607953542,-0.132,78
1780607953549,-0.134,78
1780607953557,-0.166,78
1780607953565,-0.187,78
1780607953572,-0.19,78
1780607953580,-0.185,78
1780607953588,-0.171,78
1780607953596,-0.166,78
1780607953603,-0.178,78
1780607953611,-0.183,78
1780607953619,-0.178,78
1780607953626,-0.157,78
1780607953634,-0.02,78
1780607953642,0.273,78
1780607953649,0.489,78
1780607953657,0.282,78
1780607953665,-0.28,78
1780607953672,-0.64,78
1780607953680,-0.577,78
1780607953688,-0.473,78
1780607953696,-0.5,78
1780607953703,-0.521,78
1780607953711,-0.524,78
1780607953719,-0.533,78
1780607953726,-0.524,78
1780607953734,-0.512,78
1780607953742,-0.51,78
1780607953749,-0.503,78
1780607953757,-0.496,78
1780607953765,-0.494,78
1780607953772,-0.48,78
1780607953780,-0.459,78
1780607953788,-0.445,78
1780607953796,-0.44,78
1780607953803,-0.429,78
1780607953811,-0.401,78
1780607953819,-0.373,78
1780607953826,-0.352,78
1780607953834,-0.333,78
1780607953842,-0.322,78
1780607953849,-0.327,78
1780607953857,-0.317,78
1780607953865,-0.301,78
1780607953872,-0.301,78
1780607953880,-0.303,78
1780607953888,-0.315,78
1780607953896,-0.35,78
1780607953903,-0.371,78
1780607953911,-0.368,78
1780607953919,-0.378,78
1780607953926,-0.387,78
1780607953860,-0.391,78
1780607953868,-0.403,78
1780607953876,-0.41,78
1780607953883,-0.398,78
1780607953891,-0.389,78
1780607953899,-0.378,78
1780607953907,-0.361,78
1780607953914,-0.359,78
1780607953922,-0.352,78
1780607953930,-0.333,78
1780607953937,-0.32,78
1780607953945,-0.313,78
1780607953953,-0.301,78
1780607953960,-0.301,78
1780607953968,-0.313,78
1780607953976,-0.308,78
1780607953983,-0.289,78
1780607953991,-0.28,78
1780607953999,-0.28,78
1780607954007,-0.278,78
1780607954014,-0.285,78
1780607954022,-0.28,78
1780607954030,-0.25,78
1780607954037,-0.234,78
1780607954045,-0.213,78
1780607954053,-0.143,78
1780607954060,-0.062,78
1780607954068,-0.057,78
1780607954076,-0.081,78
1780607954083,-0.011,78
1780607954091,-0.025,78
1780607954099,-0.187,78
1780607954107,-0.248,78
1780607954114,-0.229,78
1780607954122,-0.264,78
1780607954130,-0.282,78
1780607954137,-0.266,78
1780607954145,-0.266,78
1780607954153,-0.273,78
1780607954160,-0.269,78
1780607954168,-0.264,78
1780607954176,-0.262,78
1780607954183,-0.255,78
1780607954191,-0.248,78
1780607954199,-0.248,78
1780607954207,-0.257,78
1780607954214,-0.266,78
1780607954222,-0.252,78
1780607954230,-0.229,78
1780607954237,-0.206,78
1780607954245,-0.19,78
1780607954253,-0.194,78
1780607954260,-0.206,78
1780607954268,-0.201,78
1780607954276,-0.194,78
1780607954283,-0.206,78
1780607954291,-0.211,78
1780607954299,-0.201,78
1780607954307,-0.206,78
1780607954314,-0.213,78
1780607954322,-0.201,78
1780607954330,-0.194,78
1780607954337,-0.199,78
1780607954345,-0.166,78
1780607954353,-0.064,78
1780607954360,0.146,78
1780607954368,0.417,78
1780607954376,0.545,78
1780607954383,0.371,78
1780607954391,0.092,78
1780607954399,0.076,78
1780607954407,0.252,78
1780607954414,0.31,78
1780607954347,0.218,78
1780607954355,0.048,78
1780607954363,-0.097,78
1780607954370,-0.134,78
1780607954378,-0.139,78
1780607954386,-0.157,78
1780607954394,-0.164,78
1780607954401,-0.178,78
1780607954409,-0.197,78
1780607954417,-0.192,78
1780607954424,-0.192,78
1780607954432,-0.199,78
1780607954440,-0.194,78
1780607954447,-0.18,78
1780607954455,-0.166,78
1780607954463,-0.15,78
1780607954470,-0.129,78
1780607954478,-0.12,78
1780607954486,-0.127,78
1780607954494,-0.125,78
1780607954501,-0.113,78
1780607954509,-0.109,78
1780607954517,-0.115,78
1780607954524,-0.127,78
1780607954532,-0.141,78
1780607954540,-0.155,78
1780607954547,-0.173,78
1780607954555,-0.192,78
1780607954563,-0.204,78
1780607954570,-0.222,78
1780607954578,-0.243,78
1780607954586,-0.248,78
1780607954594,-0.243,78
1780607954601,-0.238,78
1780607954609,-0.231,78
1780607954617,-0.229,78
1780607954624,-0.241,78
1780607954632,-0.241,78
1780607954640,-0.224,78
1780607954647,-0.213,78
1780607954655,-0.206,78
1780607954663,-0.201,78
1780607954670,-0.208,78
1780607954678,-0.211,78
1780607954686,-0.199,78
1780607954694,-0.187,78
1780607954701,-0.187,78
1780607954709,-0.183,78
1780607954717,-0.187,78
1780607954724,-0.199,78
1780607954732,-0.199,78
1780607954740,-0.19,78
1780607954747,-0.185,78
1780607954755,-0.178,78
1780607954763,-0.18,78
1780607954770,-0.19,78
1780607954778,-0.192,78
1780607954786,-0.185,78
1780607954794,-0.187,78
1780607954801,-0.185,78
1780607954809,-0.183,78
1780607954817,-0.199,78
1780607954824,-0.208,78
1780607954832,-0.183,78
1780607954840,-0.164,78
1780607954847,-0.171,78
1780607954855,-0.173,78
1780607954863,-0.164,78
1780607954870,-0.162,78
1780607954878,-0.162,78
1780607954886,-0.157,78
1780607954894,-0.15,78
1780607954901,-0.148,78
1780607954932,-0.157,78
1780607954939,-0.173,78
1780607954947,-0.187,78
1780607954955,-0.178,78
1780607954963,-0.139,78
1780607954970,-0.115,78
1780607954978,-0.132,78
1780607954986,-0.132,78
1780607954993,-0.102,78
1780607955001,-0.097,78
1780607955009,-0.118,78
1780607955016,-0.12,78
1780607955024,-0.106,78
1780607955032,-0.118,78
1780607955039,-0.146,78
1780607955047,-0.132,78
1780607955055,-0.104,78
1780607955063,-0.115,78
1780607955070,-0.127,78
1780607955078,-0.125,78
1780607955086,-0.127,78
1780607955093,-0.12,78
1780607955101,-0.085,78
1780607955109,0.018,78
1780607955116,0.259,78
1780607955124,0.491,78
1780607955132,0.391,78
1780607955139,-0.034,78
1780607955147,-0.306,78
1780607955155,-0.224,78
1780607955163,-0.12,78
1780607955170,-0.125,78
1780607955178,-0.122,78
1780607955186,-0.122,78
1780607955193,-0.134,78
1780607955201,-0.127,78
1780607955209,-0.111,78
1780607955216,-0.106,78
1780607955224,-0.102,78
1780607955232,-0.104,78
1780607955239,-0.109,78
1780607955247,-0.092,78
1780607955255,-0.076,78
1780607955263,-0.074,78
1780607955270,-0.076,78
1780607955278,-0.078,78
1780607955286,-0.076,78
1780607955293,-0.06,78
1780607955301,-0.039,78
1780607955309,-0.034,78
1780607955316,-0.041,78
1780607955324,-0.044,78
1780607955332,-0.048,78
1780607955339,-0.055,78
1780607955347,-0.06,78
1780607955355,-0.064,78
1780607955363,-0.069,78
1780607955370,-0.083,78
1780607955378,-0.113,78
1780607955386,-0.134,78
1780607955393,-0.139,78
1780607955401,-0.146,78
1780607955409,-0.153,78
1780607955416,-0.157,78
1780607955424,-0.169,78
1780607955432,-0.169,78
1780607955439,-0.16,78
1780607955447,-0.15,78
1780607955455,-0.148,78
1780607955463,-0.148,78
1780607955470,-0.153,78
1780607955478,-0.155,78
1780607955486,-0.15,78
1780607955372,-0.146,77
1780607955380,-0.136,77
1780607955388,-0.136,77
1780607955396,-0.153,77
1780607955403,-0.169,77
1780607955411,-0.166,77
1780607955419,-0.164,77
1780607955426,-0.157,77
1780607955434,-0.153,77
1780607955442,-0.16,77
1780607955449,-0.169,77
1780607955457,-0.162,77
1780607955465,-0.15,77
1780607955472,-0.148,77
1780607955480,-0.148,77
1780607955488,-0.141,77
1780607955496,-0.143,77
1780607955503,-0.155,77
1780607955511,-0.153,77
1780607955519,-0.146,77
1780607955526,-0.15,77
1780607955534,-0.148,77
1780607955542,-0.143,77
1780607955549,-0.146,77
1780607955557,-0.139,77
1780607955565,-0.125,77
1780607955572,-0.122,77
1780607955580,-0.127,77
1780607955588,-0.127,77
1780607955596,-0.139,77
1780607955603,-0.143,77
1780607955611,-0.125,77
1780607955619,-0.118,77
1780607955626,-0.12,77
1780607955634,-0.115,77
1780607955642,-0.118,77
1780607955649,-0.129,77
1780607955657,-0.129,77
1780607955665,-0.129,77
1780607955672,-0.134,77
1780607955680,-0.12,77
1780607955688,-0.095,77
1780607955696,-0.083,77
1780607955703,-0.071,77
1780607955711,-0.057,77
1780607955719,-0.044,77
1780607955726,-0.034,77
1780607955734,-0.053,77
1780607955742,-0.097,77
1780607955749,-0.129,77
1780607955757,-0.136,77
1780607955765,-0.134,77
1780607955772,-0.141,77
1780607955780,-0.136,77
1780607955788,-0.139,77
1780607955796,-0.15,77
1780607955803,-0.143,77
1780607955811,-0.095,77
1780607955819,0.032,77
1780607955826,0.28,77
1780607955834,0.496,77
1780607955842,0.357,77
1780607955849,-0.099,77
1780607955857,-0.359,77
1780607955865,-0.252,77
1780607955872,-0.155,77
1780607955880,-0.169,77
1780607955888,-0.155,77
1780607955896,-0.143,77
1780607955903,-0.153,77
1780607955911,-0.146,77
1780607955919,-0.134,77
1780607955926,-0.134,77
1780607955956,-0.139,77
1780607955964,-0.136,77
1780607955971,-0.127,77
1780607955979,-0.12,77
1780607955987,-0.104,77
1780607955994,-0.085,77
1780607956002,-0.067,77
1780607956010,-0.048,77
1780607956018,-0.032,77
1780607956025,-0.018,77
1780607956033,-0.002,77
1780607956041,0.018,77
1780607956048,0.018,77
1780607956056,-0.004,77
1780607956064,-0.023,77
1780607956071,-0.03,77
1780607956079,-0.044,77
1780607956087,-0.053,77
1780607956094,-0.053,77
1780607956102,-0.069,77
1780607956110,-0.102,77
1780607956118,-0.118,77
1780607956125,-0.118,77
1780607956133,-0.134,77
1780607956141,-0.153,77
1780607956148,-0.16,77
1780607956156,-0.169,77
1780607956164,-0.183,77
1780607956171,-0.178,77
1780607956179,-0.16,77
1780607956187,-0.157,77
1780607956194,-0.166,77
1780607956202,-0.18,77
1780607956210,-0.185,77
1780607956218,-0.171,77
1780607956225,-0.157,77
1780607956233,-0.15,77
1780607956241,-0.146,77
1780607956248,-0.148,77
1780607956256,-0.157,77
1780607956264,-0.155,77
1780607956271,-0.139,77
1780607956279,-0.136,77
1780607956287,-0.136,77
1780607956294,-0.139,77
1780607956302,-0.155,77
1780607956310,-0.162,77
1780607956318,-0.148,77
1780607956325,-0.136,77
1780607956333,-0.139,77
1780607956341,-0.141,77
1780607956348,-0.148,77
1780607956356,-0.148,77
1780607956364,-0.136,77
1780607956371,-0.129,77
1780607956379,-0.132,77
1780607956387,-0.127,77
1780607956394,-0.127,77
1780607956402,-0.143,77
1780607956410,-0.148,77
1780607956418,-0.141,77
1780607956425,-0.141,77
1780607956433,-0.136,77
1780607956441,-0.141,77
1780607956448,-0.155,77
1780607956456,-0.157,77
1780607956464,-0.146,77
1780607956471,-0.143,77
1780607956479,-0.146,77
1780607956487,-0.146,77
1780607956494,-0.155,77
1780607956502,-0.164,77
1780607956510,-0.146,77
1780607956640,-0.115,77
1780607956648,-0.099,77
1780607956655,-0.102,77
1780607956663,-0.109,77
1780607956671,-0.106,77
1780607956678,-0.104,77
1780607956686,-0.111,77
1780607956694,-0.125,77
1780607956701,-0.12,77
1780607956709,-0.118,77
1780607956717,-0.127,77
1780607956725,-0.127,77
1780607956732,-0.12,77
1780607956740,-0.118,77
1780607956748,-0.111,77
1780607956755,-0.06,77
1780607956763,0.111,77
1780607956771,0.394,77
1780607956778,0.565,77
1780607956786,0.336,77
1780607956794,-0.155,77
1780607956801,-0.35,77
1780607956809,-0.206,77
1780607956817,-0.127,77
1780607956825,-0.143,77
1780607956832,-0.127,77
1780607956840,-0.12,77
1780607956848,-0.125,77
1780607956855,-0.113,77
1780607956863,-0.111,77
1780607956871,-0.115,77
1780607956878,-0.102,77
1780607956886,-0.09,77
1780607956894,-0.085,77
1780607956901,-0.076,77
1780607956909,-0.064,77
1780607956917,-0.057,77
1780607956925,-0.048,77
1780607956932,-0.041,77
1780607956940,-0.032,77
1780607956948,-0.023,77
1780607956955,-0.018,77
1780607956963,-0.02,77
1780607956971,-0.016,77
1780607956978,-0.009,77
1780607956986,-0.009,77
1780607956994,-0.009,77
1780607957001,-0.013,77
1780607957009,-0.03,77
1780607957017,-0.041,77
1780607957025,-0.057,77
1780607957032,-0.088,77
1780607957040,-0.109,77
1780607957048,-0.122,77
1780607957055,-0.143,77
1780607957063,-0.16,77
1780607957071,-0.162,77
1780607957078,-0.166,77
1780607957086,-0.166,77
1780607957094,-0.169,77
1780607957101,-0.176,77
1780607957109,-0.178,77
1780607957117,-0.166,77
1780607957125,-0.162,77
1780607957132,-0.157,77
1780607957140,-0.148,77
1780607957148,-0.148,77
1780607957155,-0.157,77
1780607957163,-0.155,77
1780607957171,-0.148,77
1780607957178,-0.148,77
1780607957186,-0.146,77
1780607957194,-0.141,77
1780607957418,-0.148,77
1780607957425,-0.16,77
1780607957433,-0.157,77
1780607957441,-0.148,77
1780607957449,-0.141,77
1780607957456,-0.141,77
1780607957464,-0.15,77
1780607957472,-0.155,77
1780607957479,-0.148,77
1780607957487,-0.143,77
1780607957495,-0.141,77
1780607957502,-0.134,77
1780607957510,-0.127,77
1780607957518,-0.127,77
1780607957525,-0.129,77
1780607957533,-0.12,77
1780607957541,-0.113,77
1780607957549,-0.113,77
1780607957556,-0.109,77
1780607957564,-0.115,77
1780607957572,-0.132,77
1780607957579,-0.129,77
1780607957587,-0.12,77
1780607957595,-0.12,77
1780607957602,-0.118,77
1780607957610,-0.122,77
1780607957618,-0.132,77
1780607957625,-0.125,77
1780607957633,-0.118,77
1780607957641,-0.12,77
1780607957649,-0.115,77
1780607957656,-0.106,77
1780607957664,-0.099,77
1780607957672,-0.085,77
1780607957679,-0.076,77
1780607957687,-0.078,77
1780607957695,-0.076,77
1780607957702,-0.083,77
1780607957710,-0.109,77
1780607957718,-0.125,77
1780607957725,-0.118,77
1780607957733,-0.104,77
1780607957741,-0.102,77
1780607957749,-0.102,77
1780607957756,-0.097,77
1780607957764,-0.106,77
1780607957772,-0.113,77
1780607957779,-0.055,77
1780607957787,0.134,77
1780607957795,0.426,77
1780607957802,0.593,77
1780607957810,0.357,77
1780607957818,-0.134,77
1780607957825,-0.333,77
1780607957833,-0.19,77
1780607957841,-0.115,77
1780607957849,-0.143,77
1780607957856,-0.143,77
1780607957864,-0.143,77
1780607957872,-0.143,77
1780607957879,-0.125,77
1780607957887,-0.111,77
1780607957895,-0.115,77
1780607957902,-0.122,77
1780607957910,-0.122,77
1780607957918,-0.115,77
1780607957925,-0.104,77
1780607957933,-0.09,77
1780607957941,-0.081,77
1780607957949,-0.076,77
1780607957956,-0.076,77
1780607957964,-0.074,77
1780607957972,-0.062,77
1780607958051,-0.057,77
1780607958059,-0.057,77
1780607958067,-0.044,77
1780607958075,-0.037,77
1780607958082,-0.048,77
1780607958090,-0.062,77
1780607958098,-0.069,77
1780607958105,-0.083,77
1780607958113,-0.102,77
1780607958121,-0.122,77
1780607958128,-0.153,77
1780607958136,-0.187,77
1780607958144,-0.213,77
1780607958151,-0.234,77
1780607958159,-0.245,77
1780607958167,-0.257,77
1780607958175,-0.285,77
1780607958182,-0.301,77
1780607958190,-0.289,77
1780607958198,-0.278,77
1780607958205,-0.285,77
1780607958213,-0.299,77
1780607958221,-0.303,77
1780607958228,-0.294,77
1780607958236,-0.287,77
1780607958244,-0.296,77
1780607958251,-0.303,77
1780607958259,-0.294,77
1780607958267,-0.292,77
1780607958275,-0.301,77
1780607958282,-0.306,77
1780607958290,-0.306,77
1780607958298,-0.308,77
1780607958305,-0.301,77
1780607958313,-0.306,77
1780607958321,-0.333,77
1780607958328,-0.345,77
1780607958336,-0.34,77
1780607958344,-0.35,77
1780607958351,-0.359,77
1780607958359,-0.35,77
1780607958367,-0.359,77
1780607958375,-0.373,77
1780607958382,-0.364,77
1780607958390,-0.35,77
1780607958398,-0.35,77
1780607958405,-0.35,77
1780607958413,-0.354,77
1780607958421,-0.364,77
1780607958428,-0.359,77
1780607958436,-0.354,77
1780607958444,-0.354,77
1780607958451,-0.354,77
1780607958459,-0.359,77
1780607958467,-0.373,77
1780607958475,-0.371,77
1780607958482,-0.352,77
1780607958490,-0.343,77
1780607958498,-0.34,77
1780607958505,-0.333,77
1780607958513,-0.338,77
1780607958521,-0.35,77
1780607958528,-0.345,77
1780607958536,-0.329,77
1780607958544,-0.315,77
1780607958551,-0.294,77
1780607958559,-0.287,77
1780607958567,-0.313,77
1780607958575,-0.315,77
1780607958582,-0.292,77
1780607958590,-0.292,77
1780607958598,-0.313,77
1780607958605,-0.327,77
1780607958492,-0.336,76
1780607958499,-0.327,76
1780607958507,-0.306,76
1780607958515,-0.301,76
1780607958522,-0.31,76
1780607958530,-0.31,76
1780607958538,-0.296,76
1780607958545,-0.199,76
1780607958553,0.051,76
1780607958561,0.324,76
1780607958568,0.357,76
1780607958576,0.025,76
1780607958584,-0.371,76
1780607958592,-0.436,76
1780607958599,-0.303,76
1780607958607,-0.28,76
1780607958615,-0.31,76
1780607958622,-0.282,76
1780607958630,-0.266,76
1780607958638,-0.289,76
1780607958645,-0.276,76
1780607958653,-0.238,76
1780607958661,-0.231,76
1780607958668,-0.231,76
1780607958676,-0.215,76
1780607958684,-0.208,76
1780607958692,-0.211,76
1780607958699,-0.201,76
1780607958707,-0.183,76
1780607958715,-0.16,76
1780607958722,-0.143,76
1780607958730,-0.148,76
1780607958738,-0.143,76
1780607958745,-0.113,76
1780607958753,-0.095,76
1780607958761,-0.092,76
1780607958768,-0.083,76
1780607958776,-0.078,76
1780607958784,-0.097,76
1780607958792,-0.111,76
1780607958799,-0.106,76
1780607958807,-0.106,76
1780607958815,-0.115,76
1780607958822,-0.141,76
1780607958830,-0.176,76
1780607958838,-0.19,76
1780607958845,-0.183,76
1780607958853,-0.185,76
1780607958861,-0.197,76
1780607958868,-0.185,76
1780607958876,-0.176,76
1780607958884,-0.18,76
1780607958892,-0.173,76
1780607958899,-0.157,76
1780607958907,-0.153,76
1780607958915,-0.148,76
1780607958922,-0.146,76
1780607958930,-0.148,76
1780607958938,-0.139,76
1780607958945,-0.136,76
1780607958953,-0.141,76
1780607958961,-0.134,76
1780607958968,-0.12,76
1780607958976,-0.127,76
1780607958984,-0.129,76
1780607958992,-0.115,76
1780607958999,-0.106,76
1780607959007,-0.109,76
1780607959015,-0.104,76
1780607959022,-0.102,76
1780607959030,-0.106,76
1780607959038,-0.109,76
1780607959045,-0.097,76
1780607959076,-0.088,76
1780607959084,-0.083,76
1780607959092,-0.078,76
1780607959099,-0.083,76
1780607959107,-0.076,76
1780607959115,-0.06,76
1780607959123,-0.062,76
1780607959130,-0.067,76
1780607959138,-0.064,76
1780607959146,-0.069,76
1780607959153,-0.083,76
1780607959161,-0.081,76
1780607959169,-0.074,76
1780607959176,-0.071,76
1780607959184,-0.064,76
1780607959192,-0.064,76
1780607959199,-0.069,76
1780607959207,-0.071,76
1780607959215,-0.067,76
1780607959223,-0.067,76
1780607959230,-0.069,76
1780607959238,-0.064,76
1780607959246,-0.06,76
1780607959253,-0.051,76
1780607959261,-0.03,76
1780607959269,-0.02,76
1780607959276,-0.023,76
1780607959284,-0.02,76
1780607959292,-0.03,76
1780607959299,-0.053,76
1780607959307,-0.064,76
1780607959315,-0.057,76
1780607959323,-0.055,76
1780607959330,-0.055,76
1780607959338,-0.055,76
1780607959346,-0.06,76
1780607959353,-0.062,76
1780607959361,-0.048,76
1780607959369,-0.002,76
1780607959376,0.148,76
1780607959384,0.415,76
1780607959392,0.586,76
1780607959399,0.41,76
1780607959407,0.011,76
1780607959415,-0.194,76
1780607959423,-0.118,76
1780607959430,-0.039,76
1780607959438,-0.06,76
1780607959446,-0.076,76
1780607959453,-0.057,76
1780607959461,-0.053,76
1780607959469,-0.055,76
1780607959476,-0.044,76
1780607959484,-0.039,76
1780607959492,-0.041,76
1780607959499,-0.032,76
1780607959507,-0.011,76
1780607959515,-0.004,76
1780607959523,-0.006,76
1780607959530,-0.004,76
1780607959538,0.002,76
1780607959546,0.013,76
1780607959553,0.02,76
1780607959561,0.025,76
1780607959569,0.037,76
1780607959576,0.041,76
1780607959584,0.044,76
1780607959592,0.048,76
1780607959599,0.048,76
1780607959607,0.041,76
1780607959615,0.041,76
1780607959623,0.037,76
1780607959630,0.023,76
1780607959758,0.0,76
1780607959765,-0.02,76
1780607959773,-0.034,76
1780607959781,-0.048,76
1780607959788,-0.064,76
1780607959796,-0.071,76
1780607959804,-0.078,76
1780607959811,-0.09,76
1780607959819,-0.083,76
1780607959827,-0.071,76
1780607959834,-0.074,76
1780607959842,-0.069,76
1780607959850,-0.062,76
1780607959858,-0.064,76
1780607959865,-0.06,76
1780607959873,-0.051,76
1780607959881,-0.048,76
1780607959888,-0.055,76
1780607959896,-0.055,76
1780607959904,-0.051,76
1780607959911,-0.048,76
1780607959919,-0.051,76
1780607959927,-0.055,76
1780607959934,-0.048,76
1780607959942,-0.041,76
1780607959950,-0.051,76
1780607959958,-0.06,76
1780607959965,-0.053,76
1780607959973,-0.041,76
1780607959981,-0.044,76
1780607959988,-0.051,76
1780607959996,-0.055,76
1780607960004,-0.051,76
1780607960011,-0.046,76
1780607960019,-0.048,76
1780607960027,-0.046,76
1780607960034,-0.041,76
1780607960042,-0.041,76
1780607960050,-0.046,76
1780607960058,-0.041,76
1780607960065,-0.037,76
1780607960073,-0.039,76
1780607960081,-0.044,76
1780607960088,-0.044,76
1780607960096,-0.046,76
1780607960104,-0.044,76
1780607960111,-0.039,76
1780607960119,-0.037,76
1780607960127,-0.034,76
1780607960134,-0.032,76
1780607960142,-0.039,76
1780607960150,-0.053,76
1780607960158,-0.051,76
1780607960165,-0.023,76
1780607960173,-0.004,76
1780607960181,-0.002,76
1780607960188,-0.009,76
1780607960196,-0.023,76
1780607960204,-0.034,76
1780607960211,-0.041,76
1780607960219,-0.053,76
1780607960227,-0.057,76
1780607960234,-0.055,76
1780607960242,-0.064,76
1780607960250,-0.064,76
1780607960258,-0.046,76
1780607960265,-0.037,76
1780607960273,-0.032,76
1780607960281,0.039,76
1780607960288,0.234,76
1780607960296,0.473,76
1780607960304,0.514,76
1780607960311,0.199,76
1780607960294,-0.19,76
1780607960302,-0.241,76
1780607960310,-0.106,76
1780607960317,-0.085,76
1780607960325,-0.097,76
1780607960333,-0.069,76
1780607960341,-0.067,76
1780607960348,-0.064,76
1780607960356,-0.051,76
1780607960364,-0.055,76
1780607960371,-0.067,76
1780607960379,-0.06,76
1780607960387,-0.044,76
1780607960394,-0.027,76
1780607960402,-0.016,76
1780607960410,-0.016,76
1780607960417,-0.023,76
1780607960425,-0.016,76
1780607960433,0.004,76
1780607960441,0.023,76
1780607960448,0.034,76
1780607960456,0.034,76
1780607960464,0.023,76
1780607960471,0.025,76
